time,ECG
0.000,-0.105
0.003,-0.105
0.006,-0.105
0.008,-0.105
0.011,-0.105
0.014,-0.105
0.017,-0.105
0.019,-0.105
0.022,-0.125
0.025,-0.145
0.028,-0.150
0.031,-0.175
0.033,-0.195
0.036,-0.205
0.039,-0.200
0.042,-0.200
0.044,-0.195
0.047,-0.200
0.050,-0.200
0.053,-0.210
0.056,-0.210
0.058,-0.190
0.061,-0.190
0.064,-0.200
0.067,-0.215
0.069,-0.225
0.072,-0.225
0.075,-0.210
0.078,-0.210
0.081,-0.230
0.083,-0.245
0.086,-0.260
0.089,-0.255
0.092,-0.245
0.094,-0.230
0.097,-0.245
0.100,-0.280
0.103,-0.255
0.106,-0.165
0.108,-0.015
0.111,0.160
0.114,0.375
0.117,0.645
0.119,0.985
0.122,1.370
0.125,1.725
0.128,1.935
0.131,1.895
0.133,1.625
0.136,1.280
0.139,0.915
0.142,0.550
0.144,0.260
0.147,0.045
0.150,-0.110
0.153,-0.210
0.156,-0.255
0.158,-0.260
0.161,-0.235
0.164,-0.235
0.167,-0.270
0.169,-0.290
0.172,-0.305
0.175,-0.295
0.178,-0.295
0.181,-0.300
0.183,-0.330
0.186,-0.335
0.189,-0.325
0.192,-0.325
0.194,-0.315
0.197,-0.320
0.200,-0.330
0.203,-0.330
0.206,-0.325
0.208,-0.315
0.211,-0.320
0.214,-0.325
0.217,-0.325
0.219,-0.340
0.222,-0.325
0.225,-0.300
0.228,-0.300
0.231,-0.315
0.233,-0.320
0.236,-0.335
0.239,-0.330
0.242,-0.305
0.244,-0.300
0.247,-0.310
0.250,-0.325
0.253,-0.335
0.256,-0.315
0.258,-0.295
0.261,-0.310
0.264,-0.310
0.267,-0.325
0.269,-0.315
0.272,-0.300
0.275,-0.290
0.278,-0.275
0.281,-0.275
0.283,-0.285
0.286,-0.290
0.289,-0.275
0.292,-0.260
0.294,-0.245
0.297,-0.255
0.300,-0.255
0.303,-0.255
0.306,-0.230
0.308,-0.210
0.311,-0.180
0.314,-0.170
0.317,-0.170
0.319,-0.170
0.322,-0.165
0.325,-0.130
0.328,-0.110
0.331,-0.110
0.333,-0.110
0.336,-0.105
0.339,-0.095
0.342,-0.080
0.344,-0.050
0.347,-0.050
0.350,-0.050
0.353,-0.050
0.356,-0.040
0.358,-0.020
0.361,-0.015
0.364,-0.020
0.367,-0.045
0.369,-0.050
0.372,-0.050
0.375,-0.035
0.378,-0.045
0.381,-0.065
0.383,-0.105
0.386,-0.115
0.389,-0.120
0.392,-0.110
0.394,-0.115
0.397,-0.150
0.400,-0.180
0.403,-0.195
0.406,-0.195
0.408,-0.195
0.411,-0.195
0.414,-0.215
0.417,-0.245
0.419,-0.250
0.422,-0.245
0.425,-0.235
0.428,-0.235
0.431,-0.235
0.433,-0.260
0.436,-0.270
0.439,-0.255
0.442,-0.240
0.444,-0.245
0.447,-0.260
0.450,-0.285
0.453,-0.290
0.456,-0.265
0.458,-0.250
0.461,-0.255
0.464,-0.255
0.467,-0.270
0.469,-0.280
0.472,-0.260
0.475,-0.245
0.478,-0.245
0.481,-0.245
0.483,-0.270
0.486,-0.260
0.489,-0.240
0.492,-0.235
0.494,-0.240
0.497,-0.250
0.500,-0.255
0.503,-0.250
0.506,-0.225
0.508,-0.190
0.511,-0.190
0.514,-0.195
0.517,-0.195
0.519,-0.165
0.522,-0.130
0.525,-0.065
0.528,-0.020
0.531,-0.005
0.533,0.040
0.536,0.115
0.539,0.225
0.542,0.330
0.544,0.415
0.547,0.470
0.550,0.530
0.553,0.625
0.556,0.770
0.558,0.890
0.561,1.000
0.564,1.070
0.567,1.155
0.569,1.265
0.572,1.400
0.575,1.535
0.578,1.660
0.581,1.705
0.583,1.675
0.586,1.600
0.589,1.525
0.592,1.470
0.594,1.405
0.597,1.310
0.600,1.225
0.603,1.195
0.606,1.150
0.608,1.085
0.611,1.010
0.614,0.935
0.617,0.875
0.619,0.885
0.622,0.900
0.625,0.875
0.628,0.760
0.631,0.605
0.633,0.455
0.636,0.280
0.639,0.125
0.642,-0.070
0.644,-0.245
0.647,-0.400
0.650,-0.490
0.653,-0.510
0.656,-0.545
0.658,-0.595
0.661,-0.635
0.664,-0.655
0.667,-0.675
0.669,-0.685
0.672,-0.705
0.675,-0.720
0.678,-0.720
0.681,-0.735
0.683,-0.750
0.686,-0.765
0.689,-0.750
0.692,-0.770
0.694,-0.795
0.697,-0.795
0.700,-0.820
0.703,-0.820
0.706,-0.825
0.708,-0.855
0.711,-0.860
0.714,-0.880
0.717,-0.885
0.719,-0.905
0.722,-0.905
0.725,-0.905
0.728,-0.925
0.731,-0.940
0.733,-0.975
0.736,-0.980
0.739,-0.980
0.742,-0.965
0.744,-0.965
0.747,-0.995
0.750,-1.015
0.753,-1.020
0.756,-1.025
0.758,-1.030
0.761,-1.035
0.764,-1.035
0.767,-1.040
0.769,-1.035
0.772,-1.040
0.775,-0.995
0.778,-0.990
0.781,-1.000
0.783,-1.010
0.786,-0.995
0.789,-0.965
0.792,-0.910
0.794,-0.905
0.797,-0.905
0.800,-0.885
0.803,-0.850
0.806,-0.790
0.808,-0.745
0.811,-0.720
0.814,-0.715
0.817,-0.695
0.819,-0.665
0.822,-0.605
0.825,-0.565
0.828,-0.540
0.831,-0.530
0.833,-0.515
0.836,-0.475
0.839,-0.445
0.842,-0.415
0.844,-0.410
0.847,-0.410
0.850,-0.410
0.853,-0.395
0.856,-0.380
0.858,-0.355
0.861,-0.355
0.864,-0.385
0.867,-0.390
0.869,-0.390
0.872,-0.360
0.875,-0.340
0.878,-0.350
0.881,-0.365
0.883,-0.385
0.886,-0.385
0.889,-0.360
0.892,-0.345
0.894,-0.365
0.897,-0.360
0.900,-0.370
0.903,-0.360
0.906,-0.345
0.908,-0.340
0.911,-0.360
0.914,-0.370
0.917,-0.370
0.919,-0.355
0.922,-0.335
0.925,-0.330
0.928,-0.345
0.931,-0.350
0.933,-0.355
0.936,-0.335
0.939,-0.330
0.942,-0.320
0.944,-0.320
0.947,-0.325
0.950,-0.340
0.953,-0.320
0.956,-0.305
0.958,-0.305
0.961,-0.295
0.964,-0.290
0.967,-0.300
0.969,-0.300
0.972,-0.295
0.975,-0.290
0.978,-0.280
0.981,-0.295
0.983,-0.305
0.986,-0.300
0.989,-0.290
0.992,-0.280
0.994,-0.285
0.997,-0.280
1.000,-0.315
1.003,-0.285
1.006,-0.275
1.008,-0.265
1.011,-0.260
1.014,-0.275
1.017,-0.290
1.019,-0.280
1.022,-0.275
1.025,-0.265
1.028,-0.260
1.031,-0.270
1.033,-0.285
1.036,-0.280
1.039,-0.265
1.042,-0.255
1.044,-0.260
1.047,-0.270
1.050,-0.280
1.053,-0.280
1.056,-0.270
1.058,-0.260
1.061,-0.260
1.064,-0.255
1.067,-0.275
1.069,-0.290
1.072,-0.275
1.075,-0.250
1.078,-0.255
1.081,-0.260
1.083,-0.285
1.086,-0.290
1.089,-0.280
1.092,-0.260
1.094,-0.250
1.097,-0.285
1.100,-0.280
1.103,-0.280
1.106,-0.265
1.108,-0.245
1.111,-0.235
1.114,-0.265
1.117,-0.280
1.119,-0.280
1.122,-0.255
1.125,-0.235
1.128,-0.230
1.131,-0.250
1.133,-0.260
1.136,-0.260
1.139,-0.235
1.142,-0.235
1.144,-0.230
1.147,-0.250
1.150,-0.255
1.153,-0.255
1.156,-0.235
1.158,-0.220
1.161,-0.235
1.164,-0.245
1.167,-0.260
1.169,-0.255
1.172,-0.230
1.175,-0.210
1.178,-0.210
1.181,-0.230
1.183,-0.230
1.186,-0.210
1.189,-0.180
1.192,-0.150
1.194,-0.160
1.197,-0.170
1.200,-0.175
1.203,-0.135
1.206,-0.090
1.208,-0.065
1.211,-0.065
1.214,-0.095
1.217,-0.105
1.219,-0.095
1.222,-0.090
1.225,-0.070
1.228,-0.085
1.231,-0.125
1.233,-0.145
1.236,-0.150
1.239,-0.145
1.242,-0.165
1.244,-0.205
1.247,-0.245
1.250,-0.250
1.253,-0.235
1.256,-0.210
1.258,-0.220
1.261,-0.240
1.264,-0.255
1.267,-0.265
1.269,-0.255
1.272,-0.235
1.275,-0.250
1.278,-0.270
1.281,-0.290
1.283,-0.280
1.286,-0.245
1.289,-0.220
1.292,-0.235
1.294,-0.245
1.297,-0.260
1.300,-0.260
1.303,-0.250
1.306,-0.225
1.308,-0.225
1.311,-0.250
1.314,-0.270
1.317,-0.260
1.319,-0.200
1.322,-0.085
1.325,0.060
1.328,0.215
1.331,0.420
1.333,0.680
1.336,0.980
1.339,1.265
1.342,1.465
1.344,1.485
1.347,1.260
1.350,0.935
1.353,0.590
1.356,0.240
1.358,-0.030
1.361,-0.180
1.364,-0.255
1.367,-0.255
1.369,-0.270
1.372,-0.270
1.375,-0.275
1.378,-0.265
1.381,-0.270
1.383,-0.275
1.386,-0.285
1.389,-0.295
1.392,-0.305
1.394,-0.310
1.397,-0.310
1.400,-0.310
1.403,-0.315
1.406,-0.315
1.408,-0.320
1.411,-0.305
1.414,-0.295
1.417,-0.290
1.419,-0.300
1.422,-0.320
1.425,-0.295
1.428,-0.295
1.431,-0.295
1.433,-0.295
1.436,-0.295
1.439,-0.285
1.442,-0.280
1.444,-0.280
1.447,-0.260
1.450,-0.290
1.453,-0.270
1.456,-0.265
1.458,-0.250
1.461,-0.245
1.464,-0.245
1.467,-0.270
1.469,-0.255
1.472,-0.245
1.475,-0.225
1.478,-0.215
1.481,-0.215
1.483,-0.230
1.486,-0.225
1.489,-0.195
1.492,-0.195
1.494,-0.185
1.497,-0.195
1.500,-0.185
1.503,-0.170
1.506,-0.150
1.508,-0.130
1.511,-0.120
1.514,-0.125
1.517,-0.120
1.519,-0.110
1.522,-0.080
1.525,-0.060
1.528,-0.035
1.531,-0.030
1.533,-0.030
1.536,-0.015
1.539,0.005
1.542,0.040
1.544,0.060
1.547,0.070
1.550,0.060
1.553,0.065
1.556,0.090
1.558,0.125
1.561,0.150
1.564,0.120
1.567,0.125
1.569,0.120
1.572,0.140
1.575,0.170
1.578,0.175
1.581,0.160
1.583,0.145
1.586,0.125
1.589,0.140
1.592,0.145
1.594,0.140
1.597,0.110
1.600,0.070
1.603,0.040
1.606,0.030
1.608,0.040
1.611,0.020
1.614,-0.020
1.617,-0.060
1.619,-0.070
1.622,-0.080
1.625,-0.075
1.628,-0.085
1.631,-0.115
1.633,-0.160
1.636,-0.180
1.639,-0.165
1.642,-0.165
1.644,-0.165
1.647,-0.205
1.650,-0.235
1.653,-0.230
1.656,-0.220
1.658,-0.200
1.661,-0.210
1.664,-0.225
1.667,-0.255
1.669,-0.250
1.672,-0.225
1.675,-0.220
1.678,-0.210
1.681,-0.235
1.683,-0.250
1.686,-0.255
1.689,-0.230
1.692,-0.225
1.694,-0.225
1.697,-0.225
1.700,-0.255
1.703,-0.245
1.706,-0.230
1.708,-0.210
1.711,-0.200
1.714,-0.215
1.717,-0.235
1.719,-0.230
1.722,-0.220
1.725,-0.205
1.728,-0.200
1.731,-0.230
1.733,-0.245
1.736,-0.235
1.739,-0.215
1.742,-0.200
1.744,-0.195
1.747,-0.220
1.750,-0.250
1.753,-0.260
1.756,-0.230
1.758,-0.220
1.761,-0.210
1.764,-0.225
1.767,-0.245
1.769,-0.220
1.772,-0.200
1.775,-0.175
1.778,-0.160
1.781,-0.180
1.783,-0.180
1.786,-0.155
1.789,-0.115
1.792,-0.080
1.794,-0.060
1.797,-0.070
1.800,-0.080
1.803,-0.085
1.806,-0.065
1.808,-0.055
1.811,-0.060
1.814,-0.085
1.817,-0.115
1.819,-0.125
1.822,-0.135
1.825,-0.130
1.828,-0.140
1.831,-0.180
1.833,-0.220
1.836,-0.240
1.839,-0.245
1.842,-0.240
1.844,-0.235
1.847,-0.255
1.850,-0.260
1.853,-0.235
1.856,-0.195
1.858,-0.150
1.861,-0.100
1.864,-0.060
1.867,-0.035
1.869,0.035
1.872,0.115
1.875,0.200
1.878,0.290
1.881,0.350
1.883,0.415
1.886,0.490
1.889,0.570
1.892,0.630
1.894,0.670
1.897,0.690
1.900,0.745
1.903,0.830
1.906,0.940
1.908,1.025
1.911,1.060
1.914,1.085
1.917,1.190
1.919,1.370
1.922,1.510
1.925,1.605
1.928,1.660
1.931,1.690
1.933,1.765
1.936,1.855
1.939,1.935
1.942,1.945
1.944,1.735
1.947,1.335
1.950,0.930
1.953,0.610
1.956,0.330
1.958,0.100
1.961,-0.100
1.964,-0.265
1.967,-0.375
1.969,-0.410
1.972,-0.405
1.975,-0.415
1.978,-0.460
1.981,-0.495
1.983,-0.545
1.986,-0.545
1.989,-0.545
1.992,-0.545
1.994,-0.560
1.997,-0.590
2.000,-0.615
2.003,-0.610
2.006,-0.610
2.008,-0.605
2.011,-0.600
2.014,-0.630
2.017,-0.645
2.019,-0.630
2.022,-0.615
2.025,-0.615
2.028,-0.615
2.031,-0.660
2.033,-0.685
2.036,-0.675
2.039,-0.660
2.042,-0.650
2.044,-0.655
2.047,-0.690
2.050,-0.720
2.053,-0.725
2.056,-0.700
2.058,-0.700
2.061,-0.715
2.064,-0.745
2.067,-0.760
2.069,-0.765
2.072,-0.755
2.075,-0.755
2.078,-0.755
2.081,-0.790
2.083,-0.805
2.086,-0.795
2.089,-0.785
2.092,-0.770
2.094,-0.780
2.097,-0.800
2.100,-0.825
2.103,-0.830
2.106,-0.820
2.108,-0.800
2.111,-0.790
2.114,-0.805
2.117,-0.840
2.119,-0.830
2.122,-0.805
2.125,-0.785
2.128,-0.765
2.131,-0.765
2.133,-0.780
2.136,-0.760
2.139,-0.715
2.142,-0.670
2.144,-0.670
2.147,-0.675
2.150,-0.675
2.153,-0.635
2.156,-0.590
2.158,-0.555
2.161,-0.535
2.164,-0.545
2.167,-0.520
2.169,-0.495
2.172,-0.445
2.175,-0.415
2.178,-0.395
2.181,-0.415
2.183,-0.420
2.186,-0.380
2.189,-0.360
2.192,-0.350
2.194,-0.340
2.197,-0.350
2.200,-0.365
2.203,-0.370
2.206,-0.340
2.208,-0.310
2.211,-0.325
2.214,-0.355
2.217,-0.370
2.219,-0.355
2.222,-0.340
2.225,-0.330
2.228,-0.330
2.231,-0.370
2.233,-0.385
2.236,-0.360
2.239,-0.350
2.242,-0.340
2.244,-0.325
2.247,-0.355
2.250,-0.375
2.253,-0.350
2.256,-0.345
2.258,-0.330
2.261,-0.325
2.264,-0.360
2.267,-0.365
2.269,-0.350
2.272,-0.340
2.275,-0.320
2.278,-0.330
2.281,-0.350
2.283,-0.355
2.286,-0.355
2.289,-0.335
2.292,-0.325
2.294,-0.330
2.297,-0.345
2.300,-0.355
2.303,-0.355
2.306,-0.325
2.308,-0.305
2.311,-0.285
2.314,-0.295
2.317,-0.275
2.319,-0.245
2.322,-0.190
2.325,-0.150
2.328,-0.135
2.331,-0.110
2.333,-0.055
2.336,0.045
2.339,0.170
2.342,0.270
2.344,0.390
2.347,0.490
2.350,0.595
2.353,0.710
2.356,0.805
2.358,0.910
2.361,0.975
2.364,1.035
2.367,1.105
2.369,1.185
2.372,1.230
2.375,1.230
2.378,1.175
2.381,1.100
2.383,1.025
2.386,0.995
2.389,0.980
2.392,0.970
2.394,0.930
2.397,0.885
2.400,0.855
2.403,0.865
2.406,0.880
2.408,0.880
2.411,0.895
2.414,0.880
2.417,0.885
2.419,0.845
2.422,0.785
2.425,0.655
2.428,0.520
2.431,0.300
2.433,0.095
2.436,-0.075
2.439,-0.205
2.442,-0.305
2.444,-0.375
2.447,-0.430
2.450,-0.475
2.453,-0.490
2.456,-0.530
2.458,-0.575
2.461,-0.620
2.464,-0.665
2.467,-0.690
2.469,-0.710
2.472,-0.715
2.475,-0.725
2.478,-0.765
2.481,-0.805
2.483,-0.820
2.486,-0.810
2.489,-0.800
2.492,-0.810
2.494,-0.830
2.497,-0.845
2.500,-0.865
2.503,-0.880
2.506,-0.870
2.508,-0.880
2.511,-0.895
2.514,-0.920
2.517,-0.940
2.519,-0.945
2.522,-0.960
2.525,-0.970
2.528,-0.970
2.531,-1.010
2.533,-1.015
2.536,-1.015
2.539,-1.015
2.542,-1.020
2.544,-1.060
2.547,-1.080
2.550,-1.105
2.553,-1.095
2.556,-1.090
2.558,-1.110
2.561,-1.120
2.564,-1.140
2.567,-1.140
2.569,-1.140
2.572,-1.140
2.575,-1.125
2.578,-1.110
2.581,-1.110
2.583,-1.105
2.586,-1.100
2.589,-1.080
2.592,-1.050
2.594,-1.010
2.597,-0.985
2.600,-0.970
2.603,-0.960
2.606,-0.905
2.608,-0.865
2.611,-0.830
2.614,-0.810
2.617,-0.775
2.619,-0.735
2.622,-0.690
2.625,-0.655
2.628,-0.615
2.631,-0.600
2.633,-0.580
2.636,-0.575
2.639,-0.540
2.642,-0.510
2.644,-0.485
2.647,-0.485
2.650,-0.490
2.653,-0.480
2.656,-0.455
2.658,-0.455
2.661,-0.445
2.664,-0.445
2.667,-0.455
2.669,-0.465
2.672,-0.430
2.675,-0.420
2.678,-0.415
2.681,-0.440
2.683,-0.465
2.686,-0.440
2.689,-0.420
2.692,-0.400
2.694,-0.410
2.697,-0.410
2.700,-0.445
2.703,-0.435
2.706,-0.420
2.708,-0.390
2.711,-0.395
2.714,-0.395
2.717,-0.420
2.719,-0.425
2.722,-0.405
2.725,-0.395
2.728,-0.385
2.731,-0.385
2.733,-0.410
2.736,-0.395
2.739,-0.385
2.742,-0.365
2.744,-0.355
2.747,-0.375
2.750,-0.395
2.753,-0.390
2.756,-0.380
2.758,-0.350
2.761,-0.350
2.764,-0.365
2.767,-0.385
2.769,-0.390
2.772,-0.345
2.775,-0.340
2.778,-0.360
2.781,-0.380
2.783,-0.375
2.786,-0.340
2.789,-0.325
2.792,-0.335
2.794,-0.350
2.797,-0.355
2.800,-0.340
2.803,-0.320
2.806,-0.315
2.808,-0.315
2.811,-0.335
2.814,-0.340
2.817,-0.335
2.819,-0.310
2.822,-0.305
2.825,-0.320
2.828,-0.365
2.831,-0.380
2.833,-0.345
2.836,-0.340
2.839,-0.320
2.842,-0.330
2.844,-0.330
2.847,-0.345
2.850,-0.335
2.853,-0.320
2.856,-0.305
2.858,-0.305
2.861,-0.325
2.864,-0.325
2.867,-0.330
2.869,-0.290
2.872,-0.290
2.875,-0.295
2.878,-0.320
2.881,-0.330
2.883,-0.330
2.886,-0.295
2.889,-0.285
2.892,-0.305
2.894,-0.340
2.897,-0.335
2.900,-0.325
2.903,-0.325
2.906,-0.305
2.908,-0.315
2.911,-0.325
2.914,-0.335
2.917,-0.325
2.919,-0.300
2.922,-0.295
2.925,-0.310
2.928,-0.320
2.931,-0.330
2.933,-0.320
2.936,-0.310
2.939,-0.280
2.942,-0.295
2.944,-0.320
2.947,-0.335
2.950,-0.330
2.953,-0.320
2.956,-0.295
2.958,-0.285
2.961,-0.320
2.964,-0.320
2.967,-0.310
2.969,-0.300
2.972,-0.270
2.975,-0.275
2.978,-0.300
2.981,-0.310
2.983,-0.305
2.986,-0.285
2.989,-0.275
2.992,-0.275
2.994,-0.300
2.997,-0.315
3.000,-0.320
3.003,-0.285
3.006,-0.260
3.008,-0.280
3.011,-0.295
3.014,-0.295
3.017,-0.285
3.019,-0.280
3.022,-0.275
3.025,-0.285
3.028,-0.290
3.031,-0.300
3.033,-0.305
3.036,-0.290
3.039,-0.265
3.042,-0.290
3.044,-0.285
3.047,-0.295
3.050,-0.295
3.053,-0.280
3.056,-0.260
3.058,-0.265
3.061,-0.290
3.064,-0.315
3.067,-0.305
3.069,-0.285
3.072,-0.260
3.075,-0.285
3.078,-0.280
3.081,-0.300
3.083,-0.295
3.086,-0.270
3.089,-0.260
3.092,-0.260
3.094,-0.280
3.097,-0.290
3.100,-0.290
3.103,-0.285
3.106,-0.255
3.108,-0.250
3.111,-0.255
3.114,-0.265
3.117,-0.245
3.119,-0.225
3.122,-0.200
3.125,-0.185
3.128,-0.190
3.131,-0.190
3.133,-0.185
3.136,-0.155
3.139,-0.110
3.142,-0.100
3.144,-0.095
3.147,-0.105
3.150,-0.100
3.153,-0.095
3.156,-0.085
3.158,-0.080
3.161,-0.120
3.164,-0.150
3.167,-0.170
3.169,-0.145
3.172,-0.150
3.175,-0.155
3.178,-0.190
3.181,-0.200
3.183,-0.205
3.186,-0.235
3.189,-0.210
3.192,-0.210
3.194,-0.230
3.197,-0.245
3.200,-0.265
3.203,-0.245
3.206,-0.225
3.208,-0.225
3.211,-0.230
3.214,-0.260
3.217,-0.245
3.219,-0.230
3.222,-0.220
3.225,-0.225
3.228,-0.240
3.231,-0.245
3.233,-0.255
3.236,-0.235
3.239,-0.230
3.242,-0.220
3.244,-0.240
3.247,-0.250
3.250,-0.270
3.253,-0.275
3.256,-0.255
3.258,-0.205
3.261,-0.115
3.264,0.025
3.267,0.210
3.269,0.485
3.272,0.795
3.275,1.080
3.278,1.330
3.281,1.520
3.283,1.560
3.286,1.355
3.289,0.995
3.292,0.570
3.294,0.175
3.297,-0.095
3.300,-0.200
3.303,-0.220
3.306,-0.225
3.308,-0.220
3.311,-0.250
3.314,-0.255
3.317,-0.250
3.319,-0.220
3.322,-0.225
3.325,-0.240
3.328,-0.250
3.331,-0.265
3.333,-0.275
3.336,-0.250
3.339,-0.260
3.342,-0.285
3.344,-0.300
3.347,-0.290
3.350,-0.290
3.353,-0.265
3.356,-0.260
3.358,-0.265
3.361,-0.275
3.364,-0.280
3.367,-0.285
3.369,-0.255
3.372,-0.235
3.375,-0.265
3.378,-0.270
3.381,-0.275
3.383,-0.270
3.386,-0.250
3.389,-0.225
3.392,-0.220
3.394,-0.235
3.397,-0.240
3.400,-0.240
3.403,-0.230
3.406,-0.210
3.408,-0.205
3.411,-0.220
3.414,-0.210
3.417,-0.195
3.419,-0.190
3.422,-0.175
3.425,-0.160
3.428,-0.160
3.431,-0.165
3.433,-0.155
3.436,-0.130
3.439,-0.135
3.442,-0.125
3.444,-0.115
3.447,-0.110
3.450,-0.110
3.453,-0.080
3.456,-0.065
3.458,-0.050
3.461,-0.060
3.464,-0.050
3.467,-0.045
3.469,-0.005
3.472,0.015
3.475,0.020
3.478,0.025
3.481,0.015
3.483,0.035
3.486,0.065
3.489,0.105
3.492,0.115
3.494,0.105
3.497,0.095
3.500,0.125
3.503,0.140
3.506,0.170
3.508,0.165
3.511,0.155
3.514,0.150
3.517,0.155
3.519,0.180
3.522,0.195
3.525,0.215
3.528,0.200
3.531,0.205
3.533,0.205
3.536,0.210
3.539,0.215
3.542,0.220
3.544,0.185
3.547,0.175
3.550,0.170
3.553,0.170
3.556,0.180
3.558,0.160
3.561,0.130
3.564,0.100
3.567,0.070
3.569,0.050
3.572,0.035
3.575,0.025
3.578,0.010
3.581,-0.015
3.583,-0.035
3.586,-0.045
3.589,-0.060
3.592,-0.065
3.594,-0.080
3.597,-0.090
3.600,-0.090
3.603,-0.095
3.606,-0.085
3.608,-0.090
3.611,-0.095
3.614,-0.110
3.617,-0.110
3.619,-0.105
3.622,-0.090
3.625,-0.095
3.628,-0.120
3.631,-0.120
3.633,-0.125
3.636,-0.105
3.639,-0.100
3.642,-0.105
3.644,-0.105
3.647,-0.100
3.650,-0.110
3.653,-0.100
3.656,-0.100
3.658,-0.110
3.661,-0.115
3.664,-0.120
3.667,-0.120
3.669,-0.110
3.672,-0.090
3.675,-0.100
3.678,-0.115
3.681,-0.115
3.683,-0.105
3.686,-0.095
3.689,-0.090
3.692,-0.090
3.694,-0.100
3.697,-0.105
3.700,-0.090
3.703,-0.100
3.706,-0.070
3.708,-0.075
3.711,-0.090
3.714,-0.090
3.717,-0.080
3.719,-0.045
3.722,-0.050
3.725,-0.035
3.728,-0.030
3.731,-0.030
3.733,-0.025
3.736,0.025
3.739,0.035
3.742,0.060
3.744,0.050
3.747,0.045
3.750,0.065
3.753,0.080
3.756,0.090
3.758,0.100
3.761,0.095
3.764,0.110
3.767,0.150
3.769,0.195
3.772,0.225
3.775,0.275
3.778,0.315
3.781,0.360
3.783,0.450
3.786,0.555
3.789,0.625
3.792,0.675
3.794,0.710
3.797,0.780
3.800,0.850
3.803,0.935
3.806,1.045
3.808,1.130
3.811,1.195
3.814,1.245
3.817,1.305
3.819,1.415
3.822,1.535
3.825,1.635
3.828,1.645
3.831,1.610
3.833,1.560
3.836,1.530
3.839,1.500
3.842,1.450
3.844,1.370
3.847,1.305
3.850,1.255
3.853,1.235
3.856,1.185
3.858,1.145
3.861,1.085
3.864,1.040
3.867,1.010
3.869,1.005
3.872,0.995
3.875,0.960
3.878,0.890
3.881,0.785
3.883,0.680
3.886,0.560
3.889,0.395
3.892,0.190
3.894,-0.025
3.897,-0.185
3.900,-0.290
3.903,-0.360
3.906,-0.380
3.908,-0.430
3.911,-0.480
3.914,-0.500
3.917,-0.510
3.919,-0.515
3.922,-0.530
3.925,-0.550
3.928,-0.580
3.931,-0.590
3.933,-0.595
3.936,-0.585
3.939,-0.595
3.942,-0.605
3.944,-0.615
3.947,-0.630
3.950,-0.630
3.953,-0.630
3.956,-0.630
3.958,-0.645
3.961,-0.675
3.964,-0.695
3.967,-0.700
3.969,-0.695
3.972,-0.710
3.975,-0.735
3.978,-0.750
3.981,-0.760
3.983,-0.770
3.986,-0.760
3.989,-0.765
3.992,-0.770
3.994,-0.805
3.997,-0.825
4.000,-0.825
4.003,-0.815
4.006,-0.820
4.008,-0.830
4.011,-0.865
4.014,-0.870
4.017,-0.885
4.019,-0.880
4.022,-0.880
4.025,-0.875
4.028,-0.885
4.031,-0.900
4.033,-0.885
4.036,-0.890
4.039,-0.885
4.042,-0.895
4.044,-0.890
4.047,-0.890
4.050,-0.880
4.053,-0.850
4.056,-0.835
4.058,-0.815
4.061,-0.825
4.064,-0.810
4.067,-0.785
4.069,-0.745
4.072,-0.705
4.075,-0.690
4.078,-0.680
4.081,-0.670
4.083,-0.615
4.086,-0.570
4.089,-0.520
4.092,-0.490
4.094,-0.470
4.097,-0.450
4.100,-0.410
4.103,-0.380
4.106,-0.345
4.108,-0.320
4.111,-0.320
4.114,-0.305
4.117,-0.280
4.119,-0.240
4.122,-0.225
4.125,-0.215
4.128,-0.230
4.131,-0.225
4.133,-0.225
4.136,-0.220
4.139,-0.200
4.142,-0.190
4.144,-0.215
4.147,-0.225
4.150,-0.225
4.153,-0.200
4.156,-0.205
4.158,-0.200
4.161,-0.215
4.164,-0.235
4.167,-0.220
4.169,-0.200
4.172,-0.190
4.175,-0.195
4.178,-0.225
4.181,-0.220
4.183,-0.215
4.186,-0.210
4.189,-0.205
4.192,-0.205
4.194,-0.225
4.197,-0.240
4.200,-0.225
4.203,-0.215
4.206,-0.210
4.208,-0.215
4.211,-0.230
4.214,-0.250
4.217,-0.240
4.219,-0.205
4.222,-0.200
4.225,-0.200
4.228,-0.210
4.231,-0.220
4.233,-0.220
4.236,-0.200
4.239,-0.200
4.242,-0.195
4.244,-0.200
4.247,-0.215
4.250,-0.215
4.253,-0.185
4.256,-0.185
4.258,-0.180
4.261,-0.190
4.264,-0.200
4.267,-0.190
4.269,-0.170
4.272,-0.160
4.275,-0.170
4.278,-0.175
4.281,-0.185
4.283,-0.180
4.286,-0.160
4.289,-0.150
4.292,-0.145
4.294,-0.165
4.297,-0.170
4.300,-0.165
4.303,-0.150
4.306,-0.140
4.308,-0.140
4.311,-0.130
4.314,-0.125
4.317,-0.110
4.319,-0.075
4.322,-0.035
4.325,0.005
4.328,0.035
4.331,0.070
4.333,0.135
4.336,0.205
4.339,0.265
4.342,0.330
4.344,0.390
4.347,0.465
4.350,0.545
4.353,0.645
4.356,0.755
4.358,0.845
4.361,0.905
4.364,0.970
4.367,1.050
4.369,1.145
4.372,1.260
4.375,1.340
4.378,1.400
4.381,1.455
4.383,1.535
4.386,1.645
4.389,1.690
4.392,1.645
4.394,1.580
4.397,1.490
4.400,1.435
4.403,1.395
4.406,1.355
4.408,1.320
4.411,1.270
4.414,1.225
4.417,1.180
4.419,1.175
4.422,1.165
4.425,1.145
4.428,1.115
4.431,1.080
4.433,1.085
4.436,1.105
4.439,1.100
4.442,1.045
4.444,0.920
4.447,0.790
4.450,0.625
4.453,0.430
4.456,0.225
4.458,0.015
4.461,-0.135
4.464,-0.250
4.467,-0.340
4.469,-0.380
4.472,-0.405
4.475,-0.440
4.478,-0.480
4.481,-0.505
4.483,-0.520
4.486,-0.525
4.489,-0.530
4.492,-0.545
4.494,-0.575
4.497,-0.600
4.500,-0.615
4.503,-0.605
4.506,-0.600
4.508,-0.620
4.511,-0.650
4.514,-0.670
4.517,-0.670
4.519,-0.670
4.522,-0.675
4.525,-0.670
4.528,-0.705
4.531,-0.710
4.533,-0.730
4.536,-0.730
4.539,-0.725
4.542,-0.750
4.544,-0.775
4.547,-0.790
4.550,-0.805
4.553,-0.790
4.556,-0.800
4.558,-0.805
4.561,-0.825
4.564,-0.835
4.567,-0.845
4.569,-0.850
4.572,-0.845
4.575,-0.865
4.578,-0.880
4.581,-0.885
4.583,-0.890
4.586,-0.880
4.589,-0.895
4.592,-0.905
4.594,-0.920
4.597,-0.935
4.600,-0.920
4.603,-0.900
4.606,-0.900
4.608,-0.890
4.611,-0.905
4.614,-0.905
4.617,-0.900
4.619,-0.875
4.622,-0.850
4.625,-0.815
4.628,-0.810
4.631,-0.790
4.633,-0.760
4.636,-0.740
4.639,-0.685
4.642,-0.645
4.644,-0.630
4.647,-0.600
4.650,-0.560
4.653,-0.505
4.656,-0.465
4.658,-0.460
4.661,-0.420
4.664,-0.415
4.667,-0.365
4.669,-0.305
4.672,-0.285
4.675,-0.275
4.678,-0.270
4.681,-0.255
4.683,-0.240
4.686,-0.200
4.689,-0.185
4.692,-0.170
4.694,-0.180
4.697,-0.185
4.700,-0.175
4.703,-0.160
4.706,-0.155
4.708,-0.150
4.711,-0.180
4.714,-0.185
4.717,-0.175
4.719,-0.165
4.722,-0.160
4.725,-0.160
4.728,-0.180
4.731,-0.190
4.733,-0.185
4.736,-0.165
4.739,-0.155
4.742,-0.165
4.744,-0.200
4.747,-0.195
4.750,-0.190
4.753,-0.160
4.756,-0.145
4.758,-0.160
4.761,-0.175
4.764,-0.175
4.767,-0.180
4.769,-0.150
4.772,-0.155
4.775,-0.150
4.778,-0.160
4.781,-0.170
4.783,-0.165
4.786,-0.145
4.789,-0.135
4.792,-0.150
4.794,-0.160
4.797,-0.165
4.800,-0.145
4.803,-0.135
4.806,-0.120
4.808,-0.125
4.811,-0.130
4.814,-0.150
4.817,-0.135
4.819,-0.115
4.822,-0.110
4.825,-0.115
4.828,-0.140
4.831,-0.150
4.833,-0.130
4.836,-0.120
4.839,-0.120
4.842,-0.115
4.844,-0.140
4.847,-0.150
4.850,-0.135
4.853,-0.115
4.856,-0.105
4.858,-0.105
4.861,-0.135
4.864,-0.125
4.867,-0.130
4.869,-0.120
4.872,-0.095
4.875,-0.105
4.878,-0.120
4.881,-0.130
4.883,-0.120
4.886,-0.105
4.889,-0.090
4.892,-0.105
4.894,-0.115
4.897,-0.115
4.900,-0.110
4.903,-0.100
4.906,-0.090
4.908,-0.105
4.911,-0.110
4.914,-0.125
4.917,-0.115
4.919,-0.095
4.922,-0.085
4.925,-0.085
4.928,-0.095
4.931,-0.120
4.933,-0.110
4.936,-0.100
4.939,-0.085
4.942,-0.080
4.944,-0.105
4.947,-0.105
4.950,-0.115
4.953,-0.095
4.956,-0.085
4.958,-0.090
4.961,-0.110
4.964,-0.115
4.967,-0.105
4.969,-0.085
4.972,-0.085
4.975,-0.090
4.978,-0.115
4.981,-0.120
4.983,-0.105
4.986,-0.090
4.989,-0.075
4.992,-0.075
4.994,-0.075
4.997,-0.075
5.000,-0.065
5.003,-0.030
5.006,-0.030
5.008,-0.015
5.011,-0.020
5.014,-0.025
5.017,-0.005
5.019,0.030
5.022,0.065
5.025,0.080
5.028,0.065
5.031,0.055
5.033,0.065
5.036,0.080
5.039,0.080
5.042,0.055
5.044,0.025
5.047,0.000
5.050,0.000
5.053,0.005
5.056,-0.005
5.058,-0.020
5.061,-0.055
5.064,-0.070
5.067,-0.075
5.069,-0.070
5.072,-0.075
5.075,-0.090
5.078,-0.110
5.081,-0.120
5.083,-0.120
5.086,-0.120
5.089,-0.110
5.092,-0.120
5.094,-0.125
5.097,-0.120
5.100,-0.110
5.103,-0.110
5.106,-0.105
5.108,-0.115
5.111,-0.120
5.114,-0.115
5.117,-0.100
5.119,-0.085
5.122,-0.085
5.125,-0.105
5.128,-0.105
5.131,-0.100
5.133,-0.090
5.136,-0.100
5.139,-0.095
5.142,-0.060
5.144,-0.005
5.147,0.110
5.150,0.285
5.153,0.490
5.156,0.725
5.158,0.970
5.161,1.210
5.164,1.430
5.167,1.630
5.169,1.710
5.172,1.570
5.175,1.235
5.178,0.840
5.181,0.495
5.183,0.230
5.186,0.090
5.189,0.015
5.192,-0.055
5.194,-0.120
5.197,-0.160
5.200,-0.140
5.203,-0.100
5.206,-0.090
5.208,-0.110
5.211,-0.135
5.214,-0.150
5.217,-0.145
5.219,-0.140
5.222,-0.135
5.225,-0.155
5.228,-0.180
5.231,-0.165
5.233,-0.160
5.236,-0.155
5.239,-0.145
5.242,-0.155
5.244,-0.180
5.247,-0.175
5.250,-0.155
5.253,-0.150
5.256,-0.145
5.258,-0.145
5.261,-0.170
5.264,-0.155
5.267,-0.140
5.269,-0.135
5.272,-0.115
5.275,-0.125
5.278,-0.135
5.281,-0.130
5.283,-0.125
5.286,-0.105
5.289,-0.090
5.292,-0.090
5.294,-0.090
5.297,-0.095
5.300,-0.090
5.303,-0.070
5.306,-0.030
5.308,-0.050
5.311,-0.040
5.314,-0.045
5.317,-0.030
5.319,0.000
5.322,0.020
5.325,0.020
5.328,0.015
5.331,0.010
5.333,0.035
5.336,0.080
5.339,0.110
5.342,0.115
5.344,0.105
5.347,0.090
5.350,0.115
5.353,0.165
5.356,0.180
5.358,0.200
5.361,0.205
5.364,0.195
5.367,0.205
5.369,0.245
5.372,0.270
5.375,0.285
5.378,0.290
5.381,0.290
5.383,0.310
5.386,0.325
5.389,0.340
5.392,0.335
5.394,0.315
5.397,0.330
5.400,0.325
5.403,0.345
5.406,0.345
5.408,0.320
5.411,0.265
5.414,0.250
5.417,0.235
5.419,0.235
5.422,0.210
5.425,0.180
5.428,0.155
5.431,0.120
5.433,0.110
5.436,0.105
5.439,0.080
5.442,0.040
5.444,0.005
5.447,-0.010
5.450,-0.015
5.453,-0.010
5.456,-0.020
5.458,-0.035
5.461,-0.060
5.464,-0.090
5.467,-0.075
5.469,-0.055
5.472,-0.045
5.475,-0.065
5.478,-0.085
5.481,-0.095
5.483,-0.080
5.486,-0.070
5.489,-0.070
5.492,-0.070
5.494,-0.090
5.497,-0.095
5.500,-0.095
5.503,-0.085
5.506,-0.075
5.508,-0.080
5.511,-0.090
5.514,-0.095
5.517,-0.090
5.519,-0.085
5.522,-0.070
5.525,-0.095
5.528,-0.095
5.531,-0.095
5.533,-0.075
5.536,-0.070
5.539,-0.055
5.542,-0.065
5.544,-0.075
5.547,-0.080
5.550,-0.065
5.553,-0.045
5.556,-0.050
5.558,-0.060
5.561,-0.070
5.564,-0.070
5.567,-0.075
5.569,-0.065
5.572,-0.055
5.575,-0.065
5.578,-0.075
5.581,-0.070
5.583,-0.065
5.586,-0.055
5.589,-0.090
5.592,-0.070
5.594,-0.060
5.597,-0.055
5.600,-0.030
5.603,-0.010
5.606,0.005
5.608,0.000
5.611,0.000
5.614,0.015
5.617,0.030
5.619,0.070
5.622,0.090
5.625,0.095
5.628,0.080
5.631,0.080
5.633,0.075
5.636,0.080
5.639,0.075
5.642,0.070
5.644,0.050
5.647,0.045
5.650,0.050
5.653,0.060
5.656,0.070
5.658,0.080
5.661,0.090
5.664,0.105
5.667,0.155
5.669,0.205
5.672,0.260
5.675,0.310
5.678,0.350
5.681,0.410
5.683,0.490
5.686,0.580
5.689,0.645
5.692,0.710
5.694,0.755
5.697,0.815
5.700,0.880
5.703,0.965
5.706,1.055
5.708,1.125
5.711,1.175
5.714,1.240
5.717,1.350
5.719,1.465
5.722,1.545
5.725,1.570
5.728,1.530
5.731,1.480
5.733,1.430
5.736,1.385
5.739,1.350
5.742,1.325
5.744,1.315
5.747,1.330
5.750,1.340
5.753,1.370
5.756,1.370
5.758,1.365
5.761,1.370
5.764,1.375
5.767,1.385
5.769,1.380
5.772,1.315
5.775,1.200
5.778,1.020
5.781,0.795
5.783,0.560
5.786,0.315
5.789,0.090
5.792,-0.090
5.794,-0.235
5.797,-0.335
5.800,-0.380
5.803,-0.400
5.806,-0.415
5.808,-0.455
5.811,-0.485
5.814,-0.510
5.817,-0.520
5.819,-0.520
5.822,-0.520
5.825,-0.535
5.828,-0.570
5.831,-0.585
5.833,-0.580
5.836,-0.570
5.839,-0.565
5.842,-0.595
5.844,-0.610
5.847,-0.625
5.850,-0.615
5.853,-0.620
5.856,-0.630
5.858,-0.650
5.861,-0.675
5.864,-0.685
5.867,-0.670
5.869,-0.665
5.872,-0.680
5.875,-0.720
5.878,-0.750
5.881,-0.750
5.883,-0.745
5.886,-0.735
5.889,-0.740
5.892,-0.765
5.894,-0.780
5.897,-0.795
5.900,-0.800
5.903,-0.785
5.906,-0.795
5.908,-0.805
5.911,-0.840
5.914,-0.865
5.917,-0.860
5.919,-0.840
5.922,-0.830
5.925,-0.845
5.928,-0.865
5.931,-0.880
5.933,-0.860
5.936,-0.850
5.939,-0.835
5.942,-0.840
5.944,-0.855
5.947,-0.855
5.950,-0.840
5.953,-0.825
5.956,-0.795
5.958,-0.800
5.961,-0.795
5.964,-0.780
5.967,-0.755
5.969,-0.725
5.972,-0.700
5.975,-0.675
5.978,-0.660
5.981,-0.640
5.983,-0.595
5.986,-0.535
5.989,-0.495
5.992,-0.485
5.994,-0.470
5.997,-0.465
6.000,-0.405
6.003,-0.360
6.006,-0.310
6.008,-0.300
6.011,-0.300
6.014,-0.275
6.017,-0.245
6.019,-0.205
6.022,-0.195
6.025,-0.205
6.028,-0.215
6.031,-0.220
6.033,-0.210
6.036,-0.185
6.039,-0.175
6.042,-0.185
6.044,-0.190
6.047,-0.210
6.050,-0.215
6.053,-0.185
6.056,-0.180
6.058,-0.175
6.061,-0.205
6.064,-0.200
6.067,-0.195
6.069,-0.175
6.072,-0.175
6.075,-0.175
6.078,-0.200
6.081,-0.205
6.083,-0.200
6.086,-0.190
6.089,-0.175
6.092,-0.195
6.094,-0.205
6.097,-0.205
6.100,-0.200
6.103,-0.180
6.106,-0.165
6.108,-0.165
6.111,-0.180
6.114,-0.195
6.117,-0.180
6.119,-0.170
6.122,-0.145
6.125,-0.165
6.128,-0.170
6.131,-0.195
6.133,-0.190
6.136,-0.160
6.139,-0.140
6.142,-0.145
6.144,-0.175
6.147,-0.170
6.150,-0.155
6.153,-0.140
6.156,-0.130
6.158,-0.130
6.161,-0.140
6.164,-0.125
6.167,-0.080
6.169,-0.060
6.172,-0.010
6.175,0.005
6.178,0.020
6.181,0.050
6.183,0.095
6.186,0.160
6.189,0.225
6.192,0.295
6.194,0.370
6.197,0.445
6.200,0.520
6.203,0.620
6.206,0.705
6.208,0.770
6.211,0.835
6.214,0.930
6.217,1.010
6.219,1.095
6.222,1.155
6.225,1.205
6.228,1.270
6.231,1.355
6.233,1.445
6.236,1.490
6.239,1.490
6.242,1.410
6.244,1.350
6.247,1.290
6.250,1.260
6.253,1.235
6.256,1.195
6.258,1.155
6.261,1.115
6.264,1.075
6.267,1.060
6.269,1.075
6.272,1.085
6.275,1.100
6.278,1.115
6.281,1.150
6.283,1.170
6.286,1.120
6.289,1.040
6.292,0.915
6.294,0.745
6.297,0.555
6.300,0.355
6.303,0.175
6.306,0.005
6.308,-0.105
6.311,-0.210
6.314,-0.265
6.317,-0.310
6.319,-0.335
6.322,-0.385
6.325,-0.430
6.328,-0.465
6.331,-0.490
6.333,-0.500
6.336,-0.505
6.339,-0.520
6.342,-0.545
6.344,-0.580
6.347,-0.585
6.350,-0.590
6.353,-0.595
6.356,-0.600
6.358,-0.620
6.361,-0.655
6.364,-0.645
6.367,-0.650
6.369,-0.640
6.372,-0.650
6.375,-0.675
6.378,-0.705
6.381,-0.730
6.383,-0.730
6.386,-0.720
6.389,-0.725
6.392,-0.755
6.394,-0.780
6.397,-0.800
6.400,-0.795
6.403,-0.785
6.406,-0.790
6.408,-0.820
6.411,-0.835
6.414,-0.855
6.417,-0.860
6.419,-0.855
6.422,-0.865
6.425,-0.890
6.428,-0.895
6.431,-0.900
6.433,-0.890
6.436,-0.870
6.439,-0.875
6.442,-0.880
6.444,-0.880
6.447,-0.885
6.450,-0.870
6.453,-0.840
6.456,-0.830
6.458,-0.825
6.461,-0.825
6.464,-0.800
6.467,-0.765
6.469,-0.745
6.472,-0.705
6.475,-0.695
6.478,-0.690
6.481,-0.645
6.483,-0.620
6.486,-0.580
6.489,-0.550
6.492,-0.535
6.494,-0.515
6.497,-0.475
6.500,-0.440
6.503,-0.400
6.506,-0.375
6.508,-0.355
6.511,-0.370
6.514,-0.345
6.517,-0.305
6.519,-0.275
6.522,-0.250
6.525,-0.255
6.528,-0.245
6.531,-0.250
6.533,-0.250
6.536,-0.225
6.539,-0.230
6.542,-0.245
6.544,-0.240
6.547,-0.245
6.550,-0.225
6.553,-0.205
6.556,-0.220
6.558,-0.225
6.561,-0.225
6.564,-0.235
6.567,-0.235
6.569,-0.210
6.572,-0.210
6.575,-0.230
6.578,-0.230
6.581,-0.240
6.583,-0.220
6.586,-0.210
6.589,-0.220
6.592,-0.215
6.594,-0.230
6.597,-0.220
6.600,-0.210
6.603,-0.185
6.606,-0.190
6.608,-0.210
6.611,-0.210
6.614,-0.215
6.617,-0.190
6.619,-0.170
6.622,-0.160
6.625,-0.175
6.628,-0.185
6.631,-0.210
6.633,-0.180
6.636,-0.160
6.639,-0.160
6.642,-0.170
6.644,-0.180
6.647,-0.185
6.650,-0.160
6.653,-0.145
6.656,-0.145
6.658,-0.150
6.661,-0.170
6.664,-0.165
6.667,-0.145
6.669,-0.125
6.672,-0.130
6.675,-0.130
6.678,-0.160
6.681,-0.145
6.683,-0.140
6.686,-0.125
6.689,-0.130
6.692,-0.140
6.694,-0.155
6.697,-0.155
6.700,-0.155
6.703,-0.130
6.706,-0.130
6.708,-0.135
6.711,-0.145
6.714,-0.150
6.717,-0.125
6.719,-0.110
6.722,-0.125
6.725,-0.150
6.728,-0.140
6.731,-0.145
6.733,-0.130
6.736,-0.125
6.739,-0.115
6.742,-0.120
6.744,-0.135
6.747,-0.155
6.750,-0.150
6.753,-0.130
6.756,-0.130
6.758,-0.140
6.761,-0.155
6.764,-0.145
6.767,-0.135
6.769,-0.125
6.772,-0.115
6.775,-0.135
6.778,-0.145
6.781,-0.155
6.783,-0.130
6.786,-0.110
6.789,-0.120
6.792,-0.125
6.794,-0.145
6.797,-0.140
6.800,-0.135
6.803,-0.110
6.806,-0.120
6.808,-0.135
6.811,-0.155
6.814,-0.145
6.817,-0.140
6.819,-0.130
6.822,-0.125
6.825,-0.130
6.828,-0.140
6.831,-0.135
6.833,-0.125
6.836,-0.105
6.839,-0.105
6.842,-0.120
6.844,-0.120
6.847,-0.125
6.850,-0.110
6.853,-0.105
6.856,-0.100
6.858,-0.120
6.861,-0.145
6.864,-0.140
6.867,-0.120
6.869,-0.095
6.872,-0.090
6.875,-0.115
6.878,-0.135
6.881,-0.130
6.883,-0.120
6.886,-0.115
6.889,-0.105
6.892,-0.120
6.894,-0.125
6.897,-0.125
6.900,-0.110
6.903,-0.090
6.906,-0.110
6.908,-0.120
6.911,-0.120
6.914,-0.110
6.917,-0.120
6.919,-0.110
6.922,-0.110
6.925,-0.115
6.928,-0.135
6.931,-0.125
6.933,-0.110
6.936,-0.095
6.939,-0.085
6.942,-0.090
6.944,-0.120
6.947,-0.095
6.950,-0.075
6.953,-0.065
6.956,-0.050
6.958,-0.060
6.961,-0.060
6.964,-0.045
6.967,-0.010
6.969,0.015
6.972,0.025
6.975,0.020
6.978,0.025
6.981,0.045
6.983,0.060
6.986,0.075
6.989,0.070
6.992,0.060
6.994,0.030
6.997,0.010
7.000,0.035
7.003,0.025
7.006,0.015
7.008,-0.020
7.011,-0.050
7.014,-0.065
7.017,-0.075
7.019,-0.065
7.022,-0.090
7.025,-0.115
7.028,-0.120
7.031,-0.135
7.033,-0.130
7.036,-0.120
7.039,-0.130
7.042,-0.135
7.044,-0.150
7.047,-0.140
7.050,-0.120
7.053,-0.105
7.056,-0.110
7.058,-0.120
7.061,-0.130
7.064,-0.135
7.067,-0.115
7.069,-0.105
7.072,-0.120
7.075,-0.150
7.078,-0.185
7.081,-0.180
7.083,-0.120
7.086,0.005
7.089,0.145
7.092,0.315
7.094,0.545
7.097,0.825
7.100,1.125
7.103,1.390
7.106,1.595
7.108,1.625
7.111,1.445
7.114,1.080
7.117,0.655
7.119,0.225
7.122,-0.085
7.125,-0.185
7.128,-0.180
7.131,-0.160
7.133,-0.145
7.136,-0.145
7.139,-0.145
7.142,-0.130
7.144,-0.150
7.147,-0.170
7.150,-0.175
7.153,-0.170
7.156,-0.160
7.158,-0.160
7.161,-0.180
7.164,-0.185
7.167,-0.180
7.169,-0.165
7.172,-0.140
7.175,-0.155
7.178,-0.170
7.181,-0.180
7.183,-0.170
7.186,-0.160
7.189,-0.150
7.192,-0.155
7.194,-0.165
7.197,-0.170
7.200,-0.165
7.203,-0.150
7.206,-0.140
7.208,-0.150
7.211,-0.165
7.214,-0.160
7.217,-0.155
7.219,-0.140
7.222,-0.115
7.225,-0.125
7.228,-0.130
7.231,-0.135
7.233,-0.130
7.236,-0.095
7.239,-0.095
7.242,-0.105
7.244,-0.100
7.247,-0.090
7.250,-0.075
7.253,-0.045
7.256,-0.035
7.258,-0.050
7.261,-0.040
7.264,-0.040
7.267,-0.020
7.269,0.010
7.272,0.010
7.275,0.025
7.278,0.020
7.281,0.045
7.283,0.055
7.286,0.085
7.289,0.100
7.292,0.100
7.294,0.095
7.297,0.105
7.300,0.140
7.303,0.160
7.306,0.170
7.308,0.170
7.311,0.160
7.314,0.160
7.317,0.170
7.319,0.215
7.322,0.235
7.325,0.225
7.328,0.230
7.331,0.230
7.333,0.245
7.336,0.255
7.339,0.265
7.342,0.255
7.344,0.250
7.347,0.230
7.350,0.225
7.353,0.215
7.356,0.215
7.358,0.195
7.361,0.155
7.364,0.125
7.367,0.120
7.369,0.100
7.372,0.095
7.375,0.075
7.378,0.050
7.381,0.020
7.383,0.000
7.386,-0.010
7.389,-0.015
7.392,-0.030
7.394,-0.075
7.397,-0.095
7.400,-0.110
7.403,-0.090
7.406,-0.085
7.408,-0.115
7.411,-0.120
7.414,-0.125
7.417,-0.140
7.419,-0.120
7.422,-0.135
7.425,-0.150
7.428,-0.155
7.431,-0.165
7.433,-0.140
7.436,-0.130
7.439,-0.120
7.442,-0.125
7.444,-0.145
7.447,-0.155
7.450,-0.145
7.453,-0.125
7.456,-0.130
7.458,-0.120
7.461,-0.130
7.464,-0.135
7.467,-0.135
7.469,-0.125
7.472,-0.110
7.475,-0.135
7.478,-0.145
7.481,-0.145
7.483,-0.150
7.486,-0.125
7.489,-0.120
7.492,-0.115
7.494,-0.130
7.497,-0.145
7.500,-0.140
7.503,-0.120
7.506,-0.110
7.508,-0.110
7.511,-0.125
7.514,-0.105
7.517,-0.090
7.519,-0.060
7.522,-0.040
7.525,-0.040
7.528,-0.040
7.531,-0.035
7.533,0.000
7.536,0.040
7.539,0.055
7.542,0.040
7.544,0.020
7.547,0.005
7.550,0.010
7.553,0.025
7.556,0.035
7.558,0.030
7.561,0.000
7.564,0.005
7.567,0.045
7.569,0.075
7.572,0.110
7.575,0.110
7.578,0.130
7.581,0.165
7.583,0.240
7.586,0.330
7.589,0.410
7.592,0.460
7.594,0.525
7.597,0.585
7.600,0.660
7.603,0.765
7.606,0.835
7.608,0.905
7.611,0.965
7.614,1.040
7.617,1.115
7.619,1.190
7.622,1.270
7.625,1.360
7.628,1.450
7.631,1.505
7.633,1.520
7.636,1.495
7.639,1.430
7.642,1.345
7.644,1.285
7.647,1.240
7.650,1.190
7.653,1.150
7.656,1.120
7.658,1.060
7.661,1.000
7.664,0.985
7.667,0.995
7.669,0.990
7.672,0.990
7.675,0.965
7.678,0.945
7.681,0.905
7.683,0.850
7.686,0.745
7.689,0.620
7.692,0.440
7.694,0.200
7.697,-0.010
7.700,-0.180
7.703,-0.310
7.706,-0.395
7.708,-0.460
7.711,-0.505
7.714,-0.525
7.717,-0.555
7.719,-0.540
7.722,-0.570
7.725,-0.595
7.728,-0.630
7.731,-0.635
7.733,-0.630
7.736,-0.630
7.739,-0.635
7.742,-0.655
7.744,-0.680
7.747,-0.695
7.750,-0.695
7.753,-0.690
7.756,-0.695
7.758,-0.720
7.761,-0.740
7.764,-0.760
7.767,-0.770
7.769,-0.770
7.772,-0.790
7.775,-0.795
7.778,-0.820
7.781,-0.825
7.783,-0.845
7.786,-0.840
7.789,-0.845
7.792,-0.855
7.794,-0.885
7.797,-0.895
7.800,-0.905
7.803,-0.890
7.806,-0.900
7.808,-0.925
7.811,-0.960
7.814,-0.960
7.817,-0.945
7.819,-0.960
7.822,-0.965
7.825,-0.970
7.828,-0.990
7.831,-0.990
7.833,-0.980
7.836,-0.965
7.839,-0.960
7.842,-0.960
7.844,-0.975
7.847,-0.965
7.850,-0.935
7.853,-0.910
7.856,-0.895
7.858,-0.895
7.861,-0.895
7.864,-0.870
7.867,-0.840
7.869,-0.785
7.872,-0.760
7.875,-0.745
7.878,-0.720
7.881,-0.690
7.883,-0.650
7.886,-0.605
7.889,-0.580
7.892,-0.540
7.894,-0.535
7.897,-0.505
7.900,-0.460
7.903,-0.420
7.906,-0.405
7.908,-0.400
7.911,-0.380
7.914,-0.375
7.917,-0.330
7.919,-0.325
7.922,-0.305
7.925,-0.305
7.928,-0.325
7.931,-0.320
7.933,-0.305
7.936,-0.285
7.939,-0.280
7.942,-0.305
7.944,-0.315
7.947,-0.325
7.950,-0.315
7.953,-0.285
7.956,-0.285
7.958,-0.295
7.961,-0.315
7.964,-0.315
7.967,-0.315
7.969,-0.290
7.972,-0.290
7.975,-0.295
7.978,-0.305
7.981,-0.315
7.983,-0.305
7.986,-0.300
7.989,-0.295
7.992,-0.300
7.994,-0.310
7.997,-0.320
8.000,-0.310
8.003,-0.295
8.006,-0.280
8.008,-0.280
8.011,-0.300
8.014,-0.305
8.017,-0.310
8.019,-0.280
8.022,-0.265
8.025,-0.260
8.028,-0.270
8.031,-0.280
8.033,-0.270
8.036,-0.240
8.039,-0.240
8.042,-0.240
8.044,-0.240
8.047,-0.250
8.050,-0.235
8.053,-0.225
8.056,-0.215
8.058,-0.220
8.061,-0.245
8.064,-0.250
8.067,-0.225
8.069,-0.200
8.072,-0.175
8.075,-0.170
8.078,-0.150
8.081,-0.125
8.083,-0.070
8.086,-0.020
8.089,0.010
8.092,0.055
8.094,0.095
8.097,0.135
8.100,0.245
8.103,0.355
8.106,0.450
8.108,0.515
8.111,0.595
8.114,0.665
8.117,0.765
8.119,0.860
8.122,0.950
8.125,1.060
8.128,1.145
8.131,1.230
8.133,1.355
8.136,1.490
8.139,1.560
8.142,1.590
8.144,1.535
8.147,1.455
8.150,1.390
8.153,1.330
8.156,1.280
8.158,1.245
8.161,1.195
8.164,1.160
8.167,1.125
8.169,1.095
8.172,1.055
8.175,1.030
8.178,0.985
8.181,0.975
8.183,1.000
8.186,1.025
8.189,0.985
8.192,0.900
8.194,0.770
8.197,0.620
8.200,0.455
8.203,0.255
8.206,0.050
8.208,-0.135
8.211,-0.320
8.214,-0.410
8.217,-0.460
8.219,-0.470
8.222,-0.490
8.225,-0.525
8.228,-0.565
8.231,-0.600
8.233,-0.615
8.236,-0.610
8.239,-0.625
8.242,-0.655
8.244,-0.685
8.247,-0.690
8.250,-0.685
8.253,-0.680
8.256,-0.685
8.258,-0.720
8.261,-0.745
8.264,-0.755
8.267,-0.745
8.269,-0.740
8.272,-0.760
8.275,-0.785
8.278,-0.815
8.281,-0.835
8.283,-0.840
8.286,-0.830
8.289,-0.845
8.292,-0.875
8.294,-0.900
8.297,-0.920
8.300,-0.915
8.303,-0.915
8.306,-0.925
8.308,-0.950
8.311,-0.970
8.314,-0.990
8.317,-0.990
8.319,-0.985
8.322,-0.975
8.325,-0.990
8.328,-1.020
8.331,-1.015
8.333,-0.985
8.336,-0.945
8.339,-0.925
8.342,-0.935
8.344,-0.925
8.347,-0.905
8.350,-0.845
8.353,-0.805
8.356,-0.760
8.358,-0.720
8.361,-0.715
8.364,-0.670
8.367,-0.620
8.369,-0.565
8.372,-0.525
8.375,-0.495
8.378,-0.470
8.381,-0.440
8.383,-0.395
8.386,-0.350
8.389,-0.335
8.392,-0.315
8.394,-0.310
8.397,-0.295
8.400,-0.275
8.403,-0.260
8.406,-0.245
8.408,-0.260
8.411,-0.270
8.414,-0.290
8.417,-0.260
8.419,-0.230
8.422,-0.225
8.425,-0.240
8.428,-0.255
8.431,-0.260
8.433,-0.255
8.436,-0.235
8.439,-0.225
8.442,-0.235
8.444,-0.260
8.447,-0.260
8.450,-0.250
8.453,-0.230
8.456,-0.260
8.458,-0.250
8.461,-0.265
8.464,-0.255
8.467,-0.250
8.469,-0.220
8.472,-0.225
8.475,-0.230
8.478,-0.245
8.481,-0.240
8.483,-0.215
8.486,-0.195
8.489,-0.195
8.492,-0.210
8.494,-0.235
8.497,-0.225
8.500,-0.205
8.503,-0.180
8.506,-0.185
8.508,-0.195
8.511,-0.210
8.514,-0.205
8.517,-0.180
8.519,-0.160
8.522,-0.165
8.525,-0.180
8.528,-0.190
8.531,-0.190
8.533,-0.170
8.536,-0.160
8.539,-0.155
8.542,-0.170
8.544,-0.180
8.547,-0.190
8.550,-0.175
8.553,-0.155
8.556,-0.150
8.558,-0.165
8.561,-0.185
8.564,-0.180
8.567,-0.165
8.569,-0.145
8.572,-0.140
8.575,-0.165
8.578,-0.165
8.581,-0.160
8.583,-0.165
8.586,-0.145
8.589,-0.140
8.592,-0.155
8.594,-0.165
8.597,-0.170
8.600,-0.145
8.603,-0.140
8.606,-0.135
8.608,-0.145
8.611,-0.150
8.614,-0.155
8.617,-0.135
8.619,-0.130
8.622,-0.135
8.625,-0.135
8.628,-0.155
8.631,-0.160
8.633,-0.150
8.636,-0.130
8.639,-0.140
8.642,-0.135
8.644,-0.160
8.647,-0.155
8.650,-0.145
8.653,-0.125
8.656,-0.120
8.658,-0.130
8.661,-0.150
8.664,-0.155
8.667,-0.125
8.669,-0.125
8.672,-0.145
8.675,-0.145
8.678,-0.145
8.681,-0.145
8.683,-0.135
8.686,-0.125
8.689,-0.135
8.692,-0.155
8.694,-0.140
8.697,-0.140
8.700,-0.125
8.703,-0.120
8.706,-0.115
8.708,-0.125
8.711,-0.145
8.714,-0.145
8.717,-0.135
8.719,-0.115
8.722,-0.105
8.725,-0.110
8.728,-0.105
8.731,-0.100
8.733,-0.080
8.736,-0.050
8.739,-0.045
8.742,-0.035
8.744,-0.025
8.747,-0.015
8.750,0.020
8.753,0.050
8.756,0.050
8.758,0.035
8.761,0.030
8.764,0.025
8.767,0.035
8.769,0.025
8.772,0.005
8.775,-0.020
8.778,-0.050
8.781,-0.050
8.783,-0.055
8.786,-0.055
8.789,-0.065
8.792,-0.090
8.794,-0.115
8.797,-0.125
8.800,-0.125
8.803,-0.125
8.806,-0.125
8.808,-0.140
8.811,-0.165
8.814,-0.145
8.817,-0.145
8.819,-0.135
8.822,-0.130
8.825,-0.145
8.828,-0.155
8.831,-0.140
8.833,-0.125
8.836,-0.115
8.839,-0.125
8.842,-0.140
8.844,-0.145
8.847,-0.145
8.850,-0.120
8.853,-0.115
8.856,-0.125
8.858,-0.155
8.861,-0.165
8.864,-0.150
8.867,-0.070
8.869,0.040
8.872,0.175
8.875,0.340
8.878,0.530
8.881,0.750
8.883,0.995
8.886,1.250
8.889,1.470
8.892,1.600
8.894,1.540
8.897,1.280
8.900,0.935
8.903,0.595
8.906,0.290
8.908,0.100
8.911,0.000
8.914,-0.070
8.917,-0.115
8.919,-0.145
8.922,-0.160
8.925,-0.165
8.928,-0.135
8.931,-0.130
8.933,-0.135
8.936,-0.135
8.939,-0.150
8.942,-0.175
8.944,-0.185
8.947,-0.185
8.950,-0.180
8.953,-0.165
8.956,-0.170
8.958,-0.205
8.961,-0.200
8.964,-0.195
8.967,-0.175
8.969,-0.180
8.972,-0.165
8.975,-0.180
8.978,-0.190
8.981,-0.195
8.983,-0.170
8.986,-0.150
8.989,-0.155
8.992,-0.165
8.994,-0.180
8.997,-0.185
9.000,-0.155
9.003,-0.150
9.006,-0.140
9.008,-0.140
9.011,-0.155
9.014,-0.155
9.017,-0.125
9.019,-0.100
9.022,-0.095
9.025,-0.105
9.028,-0.125
9.031,-0.140
9.033,-0.110
9.036,-0.075
9.039,-0.075
9.042,-0.090
9.044,-0.100
9.047,-0.085
9.050,-0.065
9.053,-0.030
9.056,-0.010
9.058,-0.040
9.061,-0.040
9.064,-0.055
9.067,-0.015
9.069,0.025
9.072,0.045
9.075,0.035
9.078,0.015
9.081,0.025
9.083,0.055
9.086,0.110
9.089,0.115
9.092,0.120
9.094,0.110
9.097,0.125
9.100,0.155
9.103,0.190
9.106,0.205
9.108,0.210
9.111,0.205
9.114,0.210
9.117,0.235
9.119,0.255
9.122,0.270
9.125,0.270
9.128,0.265
9.131,0.260
9.133,0.275
9.136,0.310
9.139,0.320
9.142,0.315
9.144,0.295
9.147,0.275
9.150,0.275
9.153,0.290
9.156,0.290
9.158,0.240
9.161,0.205
9.164,0.170
9.167,0.170
9.169,0.175
9.172,0.155
9.175,0.140
9.178,0.080
9.181,0.060
9.183,0.050
9.186,0.055
9.189,0.020
9.192,0.030
9.194,-0.020
9.197,-0.035
9.200,-0.045
9.203,-0.030
9.206,-0.035
9.208,-0.055
9.211,-0.080
9.214,-0.120
9.217,-0.140
9.219,-0.110
9.222,-0.105
9.225,-0.105
9.228,-0.125
9.231,-0.125
9.233,-0.125
9.236,-0.110
9.239,-0.110
9.242,-0.105
9.244,-0.120
9.247,-0.135
9.250,-0.135
9.253,-0.120
9.256,-0.115
9.258,-0.100
9.261,-0.125
9.264,-0.130
9.267,-0.125
9.269,-0.120
9.272,-0.105
9.275,-0.095
9.278,-0.125
9.281,-0.115
9.283,-0.100
9.286,-0.080
9.289,-0.080
9.292,-0.105
9.294,-0.120
9.297,-0.130
9.300,-0.130
9.303,-0.115
9.306,-0.105
9.308,-0.095
9.311,-0.110
9.314,-0.100
9.317,-0.105
9.319,-0.095
9.322,-0.100
9.325,-0.110
9.328,-0.110
9.331,-0.120
9.333,-0.105
9.336,-0.110
9.339,-0.110
9.342,-0.110
9.344,-0.120
9.347,-0.090
9.350,-0.070
9.353,-0.060
9.356,-0.050
9.358,-0.050
9.361,-0.045
9.364,-0.040
9.367,-0.015
9.369,0.005
9.372,0.020
9.375,0.025
9.378,0.025
9.381,0.025
9.383,0.045
9.386,0.065
9.389,0.055
9.392,0.020
9.394,0.005
9.397,0.010
9.400,0.030
9.403,0.045
9.406,0.045
9.408,0.035
9.411,0.025
9.414,0.050
9.417,0.070
9.419,0.125
9.422,0.160
9.425,0.170
9.428,0.205
9.431,0.270
9.433,0.350
9.436,0.435
9.439,0.515
9.442,0.570
9.444,0.615
9.447,0.680
9.450,0.755
9.453,0.830
9.456,0.900
9.458,0.965
9.461,1.040
9.464,1.115
9.467,1.185
9.469,1.245
9.472,1.340
9.475,1.420
9.478,1.495
9.481,1.550
9.483,1.555
9.486,1.545
9.489,1.505
9.492,1.445
9.494,1.390
9.497,1.330
9.500,1.295
9.503,1.285
9.506,1.245
9.508,1.220
9.511,1.170
9.514,1.140
9.517,1.145
9.519,1.160
9.522,1.155
9.525,1.140
9.528,1.125
9.531,1.090
9.533,1.030
9.536,0.960
9.539,0.865
9.542,0.715
9.544,0.520
9.547,0.295
9.550,0.095
9.553,-0.090
9.556,-0.215
9.558,-0.325
9.561,-0.395
9.564,-0.445
9.567,-0.460
9.569,-0.455
9.572,-0.465
9.575,-0.495
9.578,-0.540
9.581,-0.575
9.583,-0.580
9.586,-0.580
9.589,-0.575
9.592,-0.580
9.594,-0.605
9.597,-0.610
9.600,-0.620
9.603,-0.620
9.606,-0.625
9.608,-0.650
9.611,-0.670
9.614,-0.670
9.617,-0.655
9.619,-0.635
9.622,-0.665
9.625,-0.685
9.628,-0.690
9.631,-0.700
9.633,-0.695
9.636,-0.690
9.639,-0.700
9.642,-0.725
9.644,-0.740
9.647,-0.745
9.650,-0.750
9.653,-0.750
9.656,-0.770
9.658,-0.800
9.661,-0.825
9.664,-0.825
9.667,-0.815
9.669,-0.810
9.672,-0.810
9.675,-0.830
9.678,-0.860
9.681,-0.865
9.683,-0.860
9.686,-0.860
9.689,-0.850
9.692,-0.865
9.694,-0.890
9.697,-0.910
9.700,-0.880
9.703,-0.855
9.706,-0.830
9.708,-0.860
9.711,-0.860
9.714,-0.870
9.717,-0.845
9.719,-0.815
9.722,-0.805
9.725,-0.795
9.728,-0.805
9.731,-0.795
9.733,-0.775
9.736,-0.735
9.739,-0.715
9.742,-0.695
9.744,-0.680
9.747,-0.660
9.750,-0.645
9.753,-0.600
9.756,-0.565
9.758,-0.530
9.761,-0.505
9.764,-0.495
9.767,-0.465
9.769,-0.425
9.772,-0.385
9.775,-0.345
9.778,-0.345
9.781,-0.315
9.783,-0.290
9.786,-0.250
9.789,-0.235
9.792,-0.235
9.794,-0.240
9.797,-0.235
9.800,-0.225
9.803,-0.200
9.806,-0.195
9.808,-0.195
9.811,-0.210
9.814,-0.205
9.817,-0.205
9.819,-0.195
9.822,-0.180
9.825,-0.195
9.828,-0.205
9.831,-0.210
9.833,-0.205
9.836,-0.190
9.839,-0.180
9.842,-0.175
9.844,-0.185
9.847,-0.190
9.850,-0.180
9.853,-0.175
9.856,-0.175
9.858,-0.175
9.861,-0.180
9.864,-0.170
9.867,-0.160
9.869,-0.175
9.872,-0.180
9.875,-0.190
9.878,-0.190
9.881,-0.175
9.883,-0.170
9.886,-0.170
9.889,-0.165
9.892,-0.180
9.894,-0.185
9.897,-0.180
9.900,-0.170
9.903,-0.165
9.906,-0.170
9.908,-0.165
9.911,-0.185
9.914,-0.175
9.917,-0.170
9.919,-0.165
9.922,-0.170
9.925,-0.175
9.928,-0.170
9.931,-0.175
9.933,-0.155
9.936,-0.135
9.939,-0.120
9.942,-0.100
9.944,-0.105
9.947,-0.080
9.950,-0.035
9.953,0.015
9.956,0.060
9.958,0.085
9.961,0.120
9.964,0.165
9.967,0.235
9.969,0.320
9.972,0.390
9.975,0.475
9.978,0.545
9.981,0.620
9.983,0.710
9.986,0.805
9.989,0.885
9.992,0.940
9.994,1.025
9.997,1.130
10.000,1.225
10.003,1.305
10.006,1.385
10.008,1.455
10.011,1.550
10.014,1.630
10.017,1.670
10.019,1.660
10.022,1.620
10.025,1.540
10.028,1.480
10.031,1.420
10.033,1.355
10.036,1.315
10.039,1.235
10.042,1.170
10.044,1.105
10.047,1.055
10.050,1.035
10.053,1.035
10.056,1.020
10.058,1.000
10.061,0.995
10.064,0.965
10.067,0.885
10.069,0.760
10.072,0.595
10.075,0.400
10.078,0.190
10.081,0.010
10.083,-0.125
10.086,-0.225
10.089,-0.305
10.092,-0.370
10.094,-0.415
10.097,-0.445
10.100,-0.455
10.103,-0.475
10.106,-0.485
10.108,-0.510
10.111,-0.520
10.114,-0.535
10.117,-0.540
10.119,-0.545
10.122,-0.560
10.125,-0.570
10.128,-0.595
10.131,-0.600
10.133,-0.600
10.136,-0.605
10.139,-0.605
10.142,-0.630
10.144,-0.645
10.147,-0.650
10.150,-0.645
10.153,-0.650
10.156,-0.670
10.158,-0.680
10.161,-0.705
10.164,-0.690
10.167,-0.695
10.169,-0.700
10.172,-0.710
10.175,-0.735
10.178,-0.765
10.181,-0.770
10.183,-0.780
10.186,-0.770
10.189,-0.780
10.192,-0.805
10.194,-0.820
10.197,-0.825
10.200,-0.825
10.203,-0.825
10.206,-0.825
10.208,-0.850
10.211,-0.860
10.214,-0.860
10.217,-0.860
10.219,-0.850
10.222,-0.855
10.225,-0.870
10.228,-0.870
10.231,-0.875
10.233,-0.855
10.236,-0.825
10.239,-0.820
10.242,-0.830
10.244,-0.820
10.247,-0.795
10.250,-0.765
10.253,-0.740
10.256,-0.740
10.258,-0.730
10.261,-0.700
10.264,-0.675
10.267,-0.635
10.269,-0.580
10.272,-0.555
10.275,-0.550
10.278,-0.515
10.281,-0.480
10.283,-0.430
10.286,-0.375
10.289,-0.355
10.292,-0.350
10.294,-0.330
10.297,-0.310
10.300,-0.285
10.303,-0.240
10.306,-0.235
10.308,-0.235
10.311,-0.240
10.314,-0.225
10.317,-0.220
10.319,-0.180
10.322,-0.190
10.325,-0.205
10.328,-0.210
10.331,-0.215
10.333,-0.190
10.336,-0.185
10.339,-0.180
10.342,-0.195
10.344,-0.215
10.347,-0.200
10.350,-0.190
10.353,-0.185
10.356,-0.195
10.358,-0.225
10.361,-0.215
10.364,-0.205
10.367,-0.190
10.369,-0.170
10.372,-0.185
10.375,-0.215
10.378,-0.240
10.381,-0.225
10.383,-0.195
10.386,-0.165
10.389,-0.155
10.392,-0.185
10.394,-0.200
10.397,-0.195
10.400,-0.185
10.403,-0.170
10.406,-0.160
10.408,-0.180
10.411,-0.190
10.414,-0.180
10.417,-0.170
10.419,-0.150
10.422,-0.140
10.425,-0.170
10.428,-0.170
10.431,-0.155
10.433,-0.140
10.436,-0.125
10.439,-0.135
10.442,-0.135
10.444,-0.170
10.447,-0.160
10.450,-0.130
10.453,-0.110
10.456,-0.110
10.458,-0.135
10.461,-0.145
10.464,-0.145
10.467,-0.135
10.469,-0.120
10.472,-0.090
10.475,-0.110
10.478,-0.145
10.481,-0.135
10.483,-0.110
10.486,-0.090
10.489,-0.095
10.492,-0.105
10.494,-0.140
10.497,-0.135
10.500,-0.110
10.503,-0.095
10.506,-0.090
10.508,-0.105
10.511,-0.110
10.514,-0.115
10.517,-0.100
10.519,-0.085
10.522,-0.085
10.525,-0.110
10.528,-0.140
10.531,-0.140
10.533,-0.120
10.536,-0.090
10.539,-0.090
10.542,-0.100
10.544,-0.125
10.547,-0.130
10.550,-0.125
10.553,-0.100
10.556,-0.085
10.558,-0.105
10.561,-0.105
10.564,-0.125
10.567,-0.115
10.569,-0.090
10.572,-0.080
10.575,-0.090
10.578,-0.105
10.581,-0.115
10.583,-0.110
10.586,-0.090
10.589,-0.090
10.592,-0.095
10.594,-0.100
10.597,-0.125
10.600,-0.105
10.603,-0.075
10.606,-0.070
10.608,-0.085
10.611,-0.085
10.614,-0.105
10.617,-0.085
10.619,-0.070
10.622,-0.060
10.625,-0.065
10.628,-0.055
10.631,-0.055
10.633,-0.030
10.636,-0.010
10.639,0.005
10.642,0.000
10.644,0.015
10.647,0.025
10.650,0.040
10.653,0.070
10.656,0.085
10.658,0.090
10.661,0.090
10.664,0.085
10.667,0.080
10.669,0.085
10.672,0.085
10.675,0.055
10.678,0.045
10.681,0.035
10.683,0.025
10.686,0.020
10.689,-0.010
10.692,-0.025
10.694,-0.055
10.697,-0.060
10.700,-0.055
10.703,-0.050
10.706,-0.065
10.708,-0.080
10.711,-0.100
10.714,-0.110
10.717,-0.110
10.719,-0.105
10.722,-0.095
10.725,-0.100
10.728,-0.115
10.731,-0.110
10.733,-0.120
10.736,-0.090
10.739,-0.085
10.742,-0.095
10.744,-0.105
10.747,-0.100
10.750,-0.110
10.753,-0.105
10.756,-0.085
10.758,-0.100
10.761,-0.115
10.764,-0.140
10.767,-0.140
10.769,-0.070
10.772,0.055
10.775,0.190
10.778,0.350
10.781,0.535
10.783,0.800
10.786,1.105
10.789,1.390
10.792,1.625
10.794,1.720
10.797,1.620
10.800,1.325
10.803,0.955
10.806,0.580
10.808,0.245
10.811,0.000
10.814,-0.105
10.817,-0.130
10.819,-0.120
10.822,-0.105
10.825,-0.145
10.828,-0.135
10.831,-0.135
10.833,-0.110
10.836,-0.115
10.839,-0.115
10.842,-0.130
10.844,-0.140
10.847,-0.140
10.850,-0.135
10.853,-0.140
10.856,-0.150
10.858,-0.155
10.861,-0.160
10.864,-0.155
10.867,-0.150
10.869,-0.145
10.872,-0.140
10.875,-0.135
10.878,-0.150
10.881,-0.145
10.883,-0.145
10.886,-0.150
10.889,-0.130
10.892,-0.145
10.894,-0.155
10.897,-0.135
10.900,-0.135
10.903,-0.120
10.906,-0.110
10.908,-0.120
10.911,-0.130
10.914,-0.120
10.917,-0.100
10.919,-0.110
10.922,-0.095
10.925,-0.105
10.928,-0.095
10.931,-0.085
10.933,-0.070
10.936,-0.055
10.939,-0.035
10.942,-0.050
10.944,-0.050
10.947,-0.050
10.950,-0.040
10.953,-0.010
10.956,-0.005
10.958,0.010
10.961,0.015
10.964,0.015
10.967,0.030
10.969,0.045
10.972,0.055
10.975,0.065
10.978,0.075
10.981,0.080
10.983,0.085
10.986,0.120
10.989,0.140
10.992,0.140
10.994,0.160
10.997,0.170
11.000,0.185
11.003,0.220
11.006,0.215
11.008,0.230
11.011,0.240
11.014,0.230
11.017,0.245
11.019,0.265
11.022,0.265
11.025,0.285
11.028,0.275
11.031,0.280
11.033,0.270
11.036,0.295
11.039,0.285
11.042,0.270
11.044,0.255
11.047,0.255
11.050,0.270
11.053,0.250
11.056,0.215
11.058,0.210
11.061,0.175
11.064,0.165
11.067,0.140
11.069,0.140
11.072,0.110
11.075,0.085
11.078,0.070
11.081,0.035
11.083,0.030
11.086,0.005
11.089,0.000
11.092,-0.020
11.094,-0.055
11.097,-0.060
11.100,-0.085
11.103,-0.070
11.106,-0.075
11.108,-0.100
11.111,-0.105
11.114,-0.105
11.117,-0.105
11.119,-0.100
11.122,-0.100
11.125,-0.105
11.128,-0.115
11.131,-0.130
11.133,-0.115
11.136,-0.100
11.139,-0.085
11.142,-0.090
11.144,-0.105
11.147,-0.110
11.150,-0.115
11.153,-0.090
11.156,-0.080
11.158,-0.085
11.161,-0.105
11.164,-0.115
11.167,-0.100
11.169,-0.080
11.172,-0.065
11.175,-0.090
11.178,-0.100
11.181,-0.120
11.183,-0.110
11.186,-0.095
11.189,-0.090
11.192,-0.080
11.194,-0.095
11.197,-0.115
11.200,-0.105
11.203,-0.070
11.206,-0.080
11.208,-0.075
11.211,-0.095
11.214,-0.115
11.217,-0.095
11.219,-0.075
11.222,-0.060
11.225,-0.060
11.228,-0.060
11.231,-0.060
11.233,-0.030
11.236,-0.015
11.239,0.000
11.242,0.005
11.244,0.020
11.247,0.020
11.250,0.040
11.253,0.075
11.256,0.075
11.258,0.070
11.261,0.035
11.264,0.015
11.267,0.025
11.269,0.030
11.272,0.020
11.275,0.000
11.278,-0.040
11.281,-0.085
11.283,-0.095
11.286,-0.085
11.289,-0.085
11.292,-0.100
11.294,-0.115
11.297,-0.100
11.300,-0.050
11.303,0.000
11.306,0.030
11.308,0.060
11.311,0.100
11.314,0.170
11.317,0.245
11.319,0.335
11.322,0.405
11.325,0.475
11.328,0.515
11.331,0.595
11.333,0.690
11.336,0.750
11.339,0.800
11.342,0.845
11.344,0.920
11.347,1.025
11.350,1.110
11.353,1.170
11.356,1.230
11.358,1.285
11.361,1.360
11.364,1.490
11.367,1.585
11.369,1.655
11.372,1.695
11.375,1.730
11.378,1.795
11.381,1.905
11.383,2.000
11.386,2.045
11.389,1.855
11.392,1.470
11.394,1.045
11.397,0.695
11.400,0.420
11.403,0.165
11.406,-0.030
11.408,-0.175
11.411,-0.265
11.414,-0.310
11.417,-0.320
11.419,-0.350
11.422,-0.390
11.425,-0.420
11.428,-0.445
11.431,-0.465
11.433,-0.465
11.436,-0.485
11.439,-0.505
11.442,-0.520
11.444,-0.525
11.447,-0.525
11.450,-0.525
11.453,-0.515
11.456,-0.530
11.458,-0.545
11.461,-0.555
11.464,-0.545
11.467,-0.540
11.469,-0.535
11.472,-0.545
11.475,-0.575
11.478,-0.585
11.481,-0.580
11.483,-0.570
11.486,-0.565
11.489,-0.590
11.492,-0.600
11.494,-0.605
11.497,-0.630
11.500,-0.610
11.503,-0.620
11.506,-0.635
11.508,-0.645
11.511,-0.655
11.514,-0.665
11.517,-0.665
11.519,-0.675
11.522,-0.675
11.525,-0.705
11.528,-0.710
11.531,-0.700
11.533,-0.700
11.536,-0.705
11.539,-0.715
11.542,-0.720
11.544,-0.735
11.547,-0.720
11.550,-0.720
11.553,-0.710
11.556,-0.710
11.558,-0.710
11.561,-0.710
11.564,-0.710
11.567,-0.700
11.569,-0.700
11.572,-0.675
11.575,-0.675
11.578,-0.650
11.581,-0.635
11.583,-0.610
11.586,-0.595
11.589,-0.580
11.592,-0.555
11.594,-0.545
11.597,-0.510
11.600,-0.485
11.603,-0.455
11.606,-0.430
11.608,-0.405
11.611,-0.385
11.614,-0.355
11.617,-0.345
11.619,-0.315
11.622,-0.305
11.625,-0.280
11.628,-0.280
11.631,-0.270
11.633,-0.240
11.636,-0.230
11.639,-0.215
11.642,-0.225
11.644,-0.210
11.647,-0.215
11.650,-0.205
11.653,-0.200
11.656,-0.225
11.658,-0.215
11.661,-0.240
11.664,-0.240
11.667,-0.210
11.669,-0.220
11.672,-0.225
11.675,-0.225
11.678,-0.245
11.681,-0.235
11.683,-0.225
11.686,-0.215
11.689,-0.215
11.692,-0.220
11.694,-0.235
11.697,-0.220
11.700,-0.200
11.703,-0.195
11.706,-0.195
11.708,-0.210
11.711,-0.230
11.714,-0.230
11.717,-0.205
11.719,-0.205
11.722,-0.195
11.725,-0.205
11.728,-0.230
11.731,-0.220
11.733,-0.210
11.736,-0.205
11.739,-0.210
11.742,-0.230
11.744,-0.240
11.747,-0.230
11.750,-0.215
11.753,-0.195
11.756,-0.190
11.758,-0.200
11.761,-0.230
11.764,-0.230
11.767,-0.205
11.769,-0.180
11.772,-0.160
11.775,-0.155
11.778,-0.150
11.781,-0.140
11.783,-0.095
11.786,-0.060
11.789,-0.020
11.792,0.000
11.794,0.020
11.797,0.075
11.800,0.160
11.803,0.250
11.806,0.335
11.808,0.395
11.811,0.455
11.814,0.515
11.817,0.615
11.819,0.720
11.822,0.795
11.825,0.845
11.828,0.885
11.831,0.950
11.833,1.030
11.836,1.085
11.839,1.180
11.842,1.260
11.844,1.325
11.847,1.360
11.850,1.385
11.853,1.380
11.856,1.335
11.858,1.275
11.861,1.225
11.864,1.200
11.867,1.170
11.869,1.185
11.872,1.170
11.875,1.125
11.878,1.065
11.881,1.040
11.883,1.030
11.886,1.025
11.889,1.045
11.892,1.055
11.894,1.030
11.897,0.970
11.900,0.870
11.903,0.730
11.906,0.570
11.908,0.365
11.911,0.130
11.914,-0.075
11.917,-0.225
11.919,-0.325
11.922,-0.395
11.925,-0.445
11.928,-0.485
11.931,-0.505
11.933,-0.525
11.936,-0.530
11.939,-0.560
11.942,-0.600
11.944,-0.600
11.947,-0.620
11.950,-0.625
11.953,-0.635
11.956,-0.640
11.958,-0.660
11.961,-0.695
11.964,-0.690
11.967,-0.690
11.969,-0.680
11.972,-0.685
11.975,-0.715
11.978,-0.745
11.981,-0.755
11.983,-0.760
11.986,-0.755
11.989,-0.765
11.992,-0.785
11.994,-0.815
11.997,-0.825
12.000,-0.815
12.003,-0.840
12.006,-0.860
12.008,-0.885
12.011,-0.900
12.014,-0.895
12.017,-0.900
12.019,-0.895
12.022,-0.915
12.025,-0.940
12.028,-0.970
12.031,-1.000
12.033,-0.965
12.036,-0.960
12.039,-0.980
12.042,-0.985
12.044,-1.000
12.047,-1.005
12.050,-0.980
12.053,-0.955
12.056,-0.965
12.058,-0.975
12.061,-0.975
12.064,-0.965
12.067,-0.935
12.069,-0.905
12.072,-0.890
12.075,-0.870
12.078,-0.860
12.081,-0.845
12.083,-0.810
12.086,-0.770
12.089,-0.730
12.092,-0.705
12.094,-0.695
12.097,-0.655
12.100,-0.610
12.103,-0.555
12.106,-0.525
12.108,-0.520
12.111,-0.505
12.114,-0.475
12.117,-0.430
12.119,-0.395
12.122,-0.385
12.125,-0.365
12.128,-0.360
12.131,-0.345
12.133,-0.310
12.136,-0.290
12.139,-0.290
12.142,-0.295
12.144,-0.295
12.147,-0.295
12.150,-0.270
12.153,-0.255
12.156,-0.255
12.158,-0.280
12.161,-0.295
12.164,-0.295
12.167,-0.290
12.169,-0.275
12.172,-0.270
12.175,-0.265
12.178,-0.265
12.181,-0.270
12.183,-0.280
12.186,-0.255
12.189,-0.260
12.192,-0.275
12.194,-0.280
12.197,-0.280
12.200,-0.245
12.203,-0.250
12.206,-0.245
12.208,-0.260
12.211,-0.270
12.214,-0.260
12.217,-0.250
12.219,-0.230
12.222,-0.220
12.225,-0.235
12.228,-0.250
12.231,-0.245
12.233,-0.240
12.236,-0.235
12.239,-0.225
12.242,-0.225
12.244,-0.250
12.247,-0.245
12.250,-0.220
12.253,-0.205
12.256,-0.205
12.258,-0.220
12.261,-0.220
12.264,-0.225
12.267,-0.205
12.269,-0.210
12.272,-0.200
12.275,-0.210
12.278,-0.230
12.281,-0.230
12.283,-0.210
12.286,-0.195
12.289,-0.200
12.292,-0.215
12.294,-0.230
12.297,-0.210
12.300,-0.200
12.303,-0.205
12.306,-0.215
12.308,-0.235
12.311,-0.230
12.314,-0.210
12.317,-0.210
12.319,-0.195
12.322,-0.185
12.325,-0.205
12.328,-0.225
12.331,-0.215
12.333,-0.215
12.336,-0.195
12.339,-0.195
12.342,-0.200
12.344,-0.210
12.347,-0.215
12.350,-0.200
12.353,-0.185
12.356,-0.175
12.358,-0.200
12.361,-0.225
12.364,-0.200
12.367,-0.185
12.369,-0.170
12.372,-0.175
12.375,-0.200
12.378,-0.210
12.381,-0.205
12.383,-0.195
12.386,-0.175
12.389,-0.170
12.392,-0.190
12.394,-0.210
12.397,-0.210
12.400,-0.185
12.403,-0.175
12.406,-0.190
12.408,-0.200
12.411,-0.215
12.414,-0.205
12.417,-0.180
12.419,-0.175
12.422,-0.180
12.425,-0.200
12.428,-0.195
12.431,-0.200
12.433,-0.190
12.436,-0.165
12.439,-0.170
12.442,-0.195
12.444,-0.195
12.447,-0.195
12.450,-0.185
12.453,-0.170
12.456,-0.170
12.458,-0.205
12.461,-0.195
12.464,-0.185
12.467,-0.175
12.469,-0.160
12.472,-0.170
12.475,-0.180
12.478,-0.210
12.481,-0.200
12.483,-0.175
12.486,-0.155
12.489,-0.155
12.492,-0.185
12.494,-0.200
12.497,-0.195
12.500,-0.170
12.503,-0.170
12.506,-0.155
12.508,-0.165
12.511,-0.180
12.514,-0.175
12.517,-0.150
12.519,-0.135
12.522,-0.130
12.525,-0.130
12.528,-0.135
12.531,-0.120
12.533,-0.110
12.536,-0.080
12.539,-0.090
12.542,-0.075
12.544,-0.055
12.547,-0.035
12.550,-0.010
12.553,0.015
12.556,0.015
12.558,-0.005
12.561,-0.040
12.564,-0.040
12.567,-0.040
12.569,-0.030
12.572,-0.035
12.575,-0.070
12.578,-0.115
12.581,-0.130
12.583,-0.145
12.586,-0.140
12.589,-0.155
12.592,-0.180
12.594,-0.205
12.597,-0.180
12.600,-0.170
12.603,-0.160
12.606,-0.170
12.608,-0.170
12.611,-0.185
12.614,-0.190
12.617,-0.170
12.619,-0.165
12.622,-0.150
12.625,-0.185
12.628,-0.175
12.631,-0.195
12.633,-0.180
12.636,-0.170
12.639,-0.170
12.642,-0.170
12.644,-0.185
12.647,-0.175
12.650,-0.170
12.653,-0.175
12.656,-0.175
12.658,-0.115
12.661,-0.010
12.664,0.125
12.667,0.315
12.669,0.545
12.672,0.795
12.675,1.080
12.678,1.350
12.681,1.530
12.683,1.500
12.686,1.240
12.689,0.870
12.692,0.475
12.694,0.110
12.697,-0.110
12.700,-0.175
12.703,-0.165
12.706,-0.190
12.708,-0.205
12.711,-0.215
12.714,-0.195
12.717,-0.190
12.719,-0.190
12.722,-0.200
12.725,-0.215
12.728,-0.245
12.731,-0.225
12.733,-0.225
12.736,-0.205
12.739,-0.215
12.742,-0.225
12.744,-0.240
12.747,-0.250
12.750,-0.225
12.753,-0.205
12.756,-0.205
12.758,-0.205
12.761,-0.220
12.764,-0.235
12.767,-0.235
12.769,-0.200
12.772,-0.195
12.775,-0.200
12.778,-0.205
12.781,-0.205
12.783,-0.195
12.786,-0.185
12.789,-0.180
12.792,-0.195
12.794,-0.205
12.797,-0.195
12.800,-0.180
12.803,-0.145
12.806,-0.145
12.808,-0.140
12.811,-0.155
12.814,-0.130
12.817,-0.110
12.819,-0.095
12.822,-0.095
12.825,-0.105
12.828,-0.100
12.831,-0.080
12.833,-0.065
12.836,-0.030
12.839,-0.030
12.842,-0.055
12.844,-0.040
12.847,-0.030
12.850,0.000
12.853,0.015
12.856,0.030
12.858,0.025
12.861,0.030
12.864,0.050
12.867,0.075
12.869,0.090
12.872,0.100
12.875,0.090
12.878,0.090
12.881,0.110
12.883,0.135
12.886,0.160
12.889,0.170
12.892,0.165
12.894,0.165
12.897,0.185
12.900,0.195
12.903,0.225
12.906,0.235
12.908,0.215
12.911,0.195
12.914,0.195
12.917,0.205
12.919,0.215
12.922,0.175
12.925,0.125
12.928,0.125
12.931,0.085
12.933,0.090
12.936,0.110
12.939,0.095
12.942,0.065
12.944,0.030
12.947,0.005
12.950,0.000
12.953,-0.020
12.956,-0.020
12.958,-0.040
12.961,-0.080
12.964,-0.105
12.967,-0.100
12.969,-0.105
12.972,-0.095
12.975,-0.120
12.978,-0.155
12.981,-0.150
12.983,-0.145
12.986,-0.130
12.989,-0.135
12.992,-0.145
12.994,-0.160
12.997,-0.160
13.000,-0.145
13.003,-0.125
13.006,-0.130
13.008,-0.135
13.011,-0.145
13.014,-0.130
13.017,-0.150
13.019,-0.120
13.022,-0.115
13.025,-0.130
13.028,-0.140
13.031,-0.150
13.033,-0.135
13.036,-0.105
13.039,-0.110
13.042,-0.135
13.044,-0.150
13.047,-0.145
13.050,-0.125
13.053,-0.120
13.056,-0.110
13.058,-0.120
13.061,-0.140
13.064,-0.160
13.067,-0.120
13.069,-0.095
13.072,-0.095
13.075,-0.105
13.078,-0.110
13.081,-0.100
13.083,-0.070
13.086,-0.050
13.089,-0.040
13.092,-0.060
13.094,-0.045
13.097,-0.025
13.100,0.015
13.103,0.050
13.106,0.065
13.108,0.040
13.111,0.030
13.114,0.020
13.117,0.030
13.119,0.030
13.122,0.025
13.125,-0.010
13.128,-0.045
13.131,-0.035
13.133,-0.040
13.136,-0.040
13.139,-0.075
13.142,-0.105
13.144,-0.150
13.147,-0.120
13.150,-0.080
13.153,-0.010
13.156,0.015
13.158,0.035
13.161,0.065
13.164,0.115
13.167,0.200
13.169,0.285
13.172,0.375
13.175,0.440
13.178,0.505
13.181,0.565
13.183,0.645
13.186,0.735
13.189,0.800
13.192,0.845
13.194,0.915
13.197,1.015
13.200,1.110
13.203,1.180
13.206,1.245
13.208,1.330
13.211,1.430
13.214,1.535
13.217,1.575
13.219,1.565
13.222,1.540
13.225,1.550
13.228,1.605
13.231,1.670
13.233,1.705
13.236,1.760
13.239,1.800
13.242,1.815
13.244,1.815
13.247,1.765
13.250,1.570
13.253,1.245
13.256,0.895
13.258,0.590
13.261,0.330
13.264,0.105
13.267,-0.045
13.269,-0.145
13.272,-0.215
13.275,-0.300
13.278,-0.375
13.281,-0.410
13.283,-0.425
13.286,-0.445
13.289,-0.460
13.292,-0.490
13.294,-0.520
13.297,-0.510
13.300,-0.520
13.303,-0.505
13.306,-0.535
13.308,-0.565
13.311,-0.585
13.314,-0.570
13.317,-0.555
13.319,-0.545
13.322,-0.565
13.325,-0.590
13.328,-0.610
13.331,-0.610
13.333,-0.595
13.336,-0.585
13.339,-0.595
13.342,-0.625
13.344,-0.640
13.347,-0.640
13.350,-0.645
13.353,-0.635
13.356,-0.665
13.358,-0.680
13.361,-0.715
13.364,-0.705
13.367,-0.705
13.369,-0.685
13.372,-0.700
13.375,-0.720
13.378,-0.760
13.381,-0.765
13.383,-0.770
13.386,-0.755
13.389,-0.755
13.392,-0.780
13.394,-0.795
13.397,-0.800
13.400,-0.800
13.403,-0.795
13.406,-0.795
13.408,-0.815
13.411,-0.835
13.414,-0.820
13.417,-0.810
13.419,-0.795
13.422,-0.790
13.425,-0.800
13.428,-0.810
13.431,-0.790
13.433,-0.750
13.436,-0.730
13.439,-0.710
13.442,-0.720
13.444,-0.720
13.447,-0.680
13.450,-0.640
13.453,-0.590
13.456,-0.555
13.458,-0.560
13.461,-0.550
13.464,-0.520
13.467,-0.485
13.469,-0.430
13.472,-0.400
13.475,-0.385
13.478,-0.365
13.481,-0.330
13.483,-0.300
13.486,-0.265
13.489,-0.250
13.492,-0.250
13.494,-0.245
13.497,-0.235
13.500,-0.210
13.503,-0.185
13.506,-0.195
13.508,-0.210
13.511,-0.220
13.514,-0.210
13.517,-0.200
13.519,-0.175
13.522,-0.185
13.525,-0.205
13.528,-0.205
13.531,-0.190
13.533,-0.175
13.536,-0.160
13.539,-0.160
13.542,-0.175
13.544,-0.190
13.547,-0.170
13.550,-0.160
13.553,-0.150
13.556,-0.160
13.558,-0.175
13.561,-0.175
13.564,-0.165
13.567,-0.160
13.569,-0.155
13.572,-0.150
13.575,-0.165
13.578,-0.185
13.581,-0.165
13.583,-0.160
13.586,-0.150
13.589,-0.135
13.592,-0.160
13.594,-0.145
13.597,-0.130
13.600,-0.125
13.603,-0.115
13.606,-0.115
13.608,-0.135
13.611,-0.125
13.614,-0.130
13.617,-0.110
13.619,-0.110
13.622,-0.095
13.625,-0.110
13.628,-0.110
13.631,-0.105
13.633,-0.100
13.636,-0.085
13.639,-0.075
13.642,-0.085
13.644,-0.095
13.647,-0.080
13.650,-0.065
13.653,-0.060
13.656,-0.075
13.658,-0.055
13.661,-0.030
13.664,-0.010
13.667,0.020
13.669,0.055
13.672,0.095
13.675,0.135
13.678,0.185
13.681,0.240
13.683,0.315
13.686,0.370
13.689,0.440
13.692,0.515
13.694,0.580
13.697,0.650
13.700,0.735
13.703,0.825
13.706,0.890
13.708,0.930
13.711,0.970
13.714,1.030
13.717,1.125
13.719,1.240
13.722,1.290
13.725,1.355
13.728,1.440
13.731,1.530
13.733,1.620
13.736,1.645
13.739,1.620
13.742,1.540
13.744,1.450
13.747,1.390
13.750,1.345
13.753,1.310
13.756,1.290
13.758,1.270
13.761,1.225
13.764,1.190
13.767,1.160
13.769,1.160
13.772,1.125
13.775,1.095
13.778,1.080
13.781,1.085
13.783,1.065
13.786,1.030
13.789,0.930
13.792,0.795
13.794,0.630
13.797,0.480
13.800,0.305
13.803,0.120
13.806,-0.035
13.808,-0.175
13.811,-0.305
13.814,-0.350
13.817,-0.390
13.819,-0.390
13.822,-0.420
13.825,-0.450
13.828,-0.475
13.831,-0.500
13.833,-0.520
13.836,-0.520
13.839,-0.535
13.842,-0.560
13.844,-0.590
13.847,-0.595
13.850,-0.585
13.853,-0.585
13.856,-0.600
13.858,-0.630
13.861,-0.665
13.864,-0.680
13.867,-0.665
13.869,-0.670
13.872,-0.665
13.875,-0.690
13.878,-0.730
13.881,-0.730
13.883,-0.740
13.886,-0.735
13.889,-0.740
13.892,-0.765
13.894,-0.780
13.897,-0.805
13.900,-0.810
13.903,-0.810
13.906,-0.810
13.908,-0.840
13.911,-0.870
13.914,-0.865
13.917,-0.865
13.919,-0.865
13.922,-0.860
13.925,-0.880
13.928,-0.895
13.931,-0.900
13.933,-0.900
13.936,-0.885
13.939,-0.885
13.942,-0.895
13.944,-0.905
13.947,-0.905
13.950,-0.900
13.953,-0.880
13.956,-0.850
13.958,-0.840
13.961,-0.840
13.964,-0.820
13.967,-0.785
13.969,-0.760
13.972,-0.720
13.975,-0.710
13.978,-0.690
13.981,-0.635
13.983,-0.590
13.986,-0.550
13.989,-0.500
13.992,-0.485
13.994,-0.465
13.997,-0.445
14.000,-0.380
14.003,-0.330
14.006,-0.305
14.008,-0.275
14.011,-0.265
14.014,-0.235
14.017,-0.210
14.019,-0.165
14.022,-0.150
14.025,-0.145
14.028,-0.150
14.031,-0.130
14.033,-0.120
14.036,-0.110
14.039,-0.095
14.042,-0.115
14.044,-0.140
14.047,-0.130
14.050,-0.115
14.053,-0.100
14.056,-0.110
14.058,-0.110
14.061,-0.135
14.064,-0.135
14.067,-0.115
14.069,-0.095
14.072,-0.100
14.075,-0.115
14.078,-0.125
14.081,-0.135
14.083,-0.125
14.086,-0.110
14.089,-0.105
14.092,-0.135
14.094,-0.150
14.097,-0.135
14.100,-0.110
14.103,-0.100
14.106,-0.085
14.108,-0.120
14.111,-0.115
14.114,-0.115
14.117,-0.095
14.119,-0.075
14.122,-0.075
14.125,-0.095
14.128,-0.085
14.131,-0.090
14.133,-0.075
14.136,-0.060
14.139,-0.060
14.142,-0.075
14.144,-0.070
14.147,-0.060
14.150,-0.045
14.153,-0.025
14.156,-0.030
14.158,-0.060
14.161,-0.075
14.164,-0.080
14.167,-0.045
14.169,-0.030
14.172,-0.025
14.175,-0.035
14.178,-0.055
14.181,-0.065
14.183,-0.040
14.186,-0.020
14.189,-0.020
14.192,-0.030
14.194,-0.040
14.197,-0.050
14.200,-0.030
14.203,-0.015
14.206,-0.015
14.208,-0.045
14.211,-0.060
14.214,-0.055
14.217,-0.035
14.219,-0.035
14.222,-0.030
14.225,-0.055
14.228,-0.070
14.231,-0.065
14.233,-0.040
14.236,-0.015
14.239,-0.020
14.242,-0.030
14.244,-0.040
14.247,-0.050
14.250,-0.035
14.253,-0.005
14.256,-0.010
14.258,-0.025
14.261,-0.045
14.264,-0.040
14.267,-0.020
14.269,0.000
14.272,-0.005
14.275,-0.020
14.278,-0.025
14.281,-0.020
14.283,0.005
14.286,0.015
14.289,0.035
14.292,0.020
14.294,0.025
14.297,0.045
14.300,0.065
14.303,0.095
14.306,0.105
14.308,0.105
14.311,0.140
14.314,0.165
14.317,0.175
14.319,0.180
14.322,0.165
14.325,0.125
14.328,0.110
14.331,0.105
14.333,0.090
14.336,0.075
14.339,0.060
14.342,0.020
14.344,0.000
14.347,-0.005
14.350,0.000
14.353,0.000
14.356,-0.005
14.358,-0.020
14.361,-0.030
14.364,-0.030
14.367,-0.020
14.369,0.015
14.372,-0.005
14.375,-0.005
14.378,-0.020
14.381,-0.015
14.383,-0.005
14.386,0.015
14.389,0.005
14.392,-0.005
14.394,-0.030
14.397,-0.025
14.400,-0.010
14.403,-0.025
14.406,-0.035
14.408,-0.045
14.411,0.010
14.414,0.130
14.417,0.275
14.419,0.470
14.422,0.690
14.425,0.925
14.428,1.190
14.431,1.450
14.433,1.680
14.436,1.785
14.439,1.620
14.442,1.225
14.444,0.820
14.447,0.470
14.450,0.245
14.453,0.145
14.456,0.090
14.458,0.015
14.461,-0.055
14.464,-0.080
14.467,-0.060
14.469,-0.020
14.472,-0.020
14.475,-0.050
14.478,-0.065
14.481,-0.085
14.483,-0.085
14.486,-0.090
14.489,-0.090
14.492,-0.105
14.494,-0.125
14.497,-0.115
14.500,-0.100
14.503,-0.085
14.506,-0.100
14.508,-0.105
14.511,-0.100
14.514,-0.105
14.517,-0.110
14.519,-0.080
14.522,-0.085
14.525,-0.095
14.528,-0.115
14.531,-0.110
14.533,-0.095
14.536,-0.075
14.539,-0.060
14.542,-0.075
14.544,-0.100
14.547,-0.075
14.550,-0.080
14.553,-0.060
14.556,-0.040
14.558,-0.065
14.561,-0.060
14.564,-0.050
14.567,-0.040
14.569,-0.015
14.572,-0.015
14.575,-0.030
14.578,-0.010
14.581,0.010
14.583,0.010
14.586,0.060
14.589,0.060
14.592,0.045
14.594,0.050
14.597,0.065
14.600,0.095
14.603,0.130
14.606,0.130
14.608,0.135
14.611,0.140
14.614,0.170
14.617,0.190
14.619,0.220
14.622,0.250
14.625,0.235
14.628,0.245
14.631,0.260
14.633,0.265
14.636,0.285
14.639,0.300
14.642,0.300
14.644,0.300
14.647,0.325
14.650,0.340
14.653,0.360
14.656,0.355
14.658,0.340
14.661,0.340
14.664,0.350
14.667,0.370
14.669,0.365
14.672,0.345
14.675,0.305
14.678,0.280
14.681,0.270
14.683,0.260
14.686,0.240
14.689,0.210
14.692,0.175
14.694,0.135
14.697,0.125
14.700,0.115
14.703,0.105
14.706,0.090
14.708,0.050
14.711,0.010
14.714,0.005
14.717,0.000
14.719,-0.005
14.722,-0.015
14.725,-0.040
14.728,-0.060
14.731,-0.070
14.733,-0.065
14.736,-0.060
14.739,-0.090
14.742,-0.120
14.744,-0.130
14.747,-0.130
14.750,-0.115
14.753,-0.085
14.756,-0.070
14.758,-0.085
14.761,-0.080
14.764,-0.085
14.767,-0.080
14.769,-0.055
14.772,-0.055
14.775,-0.080
14.778,-0.090
14.781,-0.090
14.783,-0.070
14.786,-0.055
14.789,-0.065
14.792,-0.075
14.794,-0.090
14.797,-0.090
14.800,-0.065
14.803,-0.080
14.806,-0.070
14.808,-0.095
14.811,-0.105
14.814,-0.105
14.817,-0.075
14.819,-0.065
14.822,-0.065
14.825,-0.080
14.828,-0.095
14.831,-0.080
14.833,-0.075
14.836,-0.065
14.839,-0.070
14.842,-0.090
14.844,-0.085
14.847,-0.090
14.850,-0.075
14.853,-0.090
14.856,-0.095
14.858,-0.105
14.861,-0.105
14.864,-0.105
14.867,-0.095
14.869,-0.080
14.872,-0.070
14.875,-0.070
14.878,-0.060
14.881,-0.050
14.883,-0.045
14.886,-0.020
14.889,0.005
14.892,0.005
14.894,0.005
14.897,0.015
14.900,0.050
14.903,0.065
14.906,0.065
14.908,0.045
14.911,0.030
14.914,0.040
14.917,0.045
14.919,0.035
14.922,0.020
14.925,-0.020
14.928,-0.040
14.931,-0.060
14.933,-0.075
14.936,-0.075
14.939,-0.090
14.942,-0.105
14.944,-0.105
14.947,-0.090
14.950,-0.045
14.953,-0.005
14.956,0.035
14.958,0.060
14.961,0.120
14.964,0.195
14.967,0.280
14.969,0.370
14.972,0.420
14.975,0.460
14.978,0.520
14.981,0.590
14.983,0.675
14.986,0.750
14.989,0.805
14.992,0.855
14.994,0.920
14.997,1.015
15.000,1.135
15.003,1.210
15.006,1.275
15.008,1.355
15.011,1.430
15.014,1.540
15.017,1.590
15.019,1.655
15.022,1.665
15.025,1.695
15.028,1.730
15.031,1.790
15.033,1.870
15.036,1.935
15.039,1.995
15.042,2.060
15.044,2.080
15.047,1.970
15.050,1.705
15.053,1.340
15.056,1.000
15.058,0.690
15.061,0.375
15.064,0.150
15.067,-0.010
15.069,-0.125
15.072,-0.200
15.075,-0.280
15.078,-0.325
15.081,-0.345
15.083,-0.355
15.086,-0.355
15.089,-0.380
15.092,-0.410
15.094,-0.440
15.097,-0.445
15.100,-0.450
15.103,-0.455
15.106,-0.465
15.108,-0.495
15.111,-0.505
15.114,-0.505
15.117,-0.495
15.119,-0.490
15.122,-0.495
15.125,-0.530
15.128,-0.545
15.131,-0.565
15.133,-0.530
15.136,-0.525
15.139,-0.530
15.142,-0.560
15.144,-0.580
15.147,-0.590
15.150,-0.585
15.153,-0.570
15.156,-0.590
15.158,-0.625
15.161,-0.645
15.164,-0.645
15.167,-0.635
15.169,-0.625
15.172,-0.635
15.175,-0.660
15.178,-0.680
15.181,-0.700
15.183,-0.680
15.186,-0.670
15.189,-0.665
15.192,-0.690
15.194,-0.725
15.197,-0.725
15.200,-0.710
15.203,-0.695
15.206,-0.690
15.208,-0.695
15.211,-0.715
15.214,-0.710
15.217,-0.695
15.219,-0.690
15.222,-0.690
15.225,-0.685
15.228,-0.695
15.231,-0.675
15.233,-0.655
15.236,-0.635
15.239,-0.625
15.242,-0.635
15.244,-0.630
15.247,-0.600
15.250,-0.575
15.253,-0.550
15.256,-0.525
15.258,-0.525
15.261,-0.525
15.264,-0.485
15.267,-0.450
15.269,-0.410
15.272,-0.390
15.275,-0.390
15.278,-0.380
15.281,-0.370
15.283,-0.330
15.286,-0.300
15.289,-0.275
15.292,-0.265
15.294,-0.265
15.297,-0.250
15.300,-0.240
15.303,-0.205
15.306,-0.180
15.308,-0.185
15.311,-0.200
15.314,-0.195
15.317,-0.185
15.319,-0.170
15.322,-0.170
15.325,-0.200
15.328,-0.185
15.331,-0.200
15.333,-0.175
15.336,-0.170
15.339,-0.165
15.342,-0.185
15.344,-0.210
15.347,-0.190
15.350,-0.170
15.353,-0.160
15.356,-0.160
15.358,-0.180
15.361,-0.180
15.364,-0.170
15.367,-0.160
15.369,-0.160
15.372,-0.140
15.375,-0.160
15.378,-0.170
15.381,-0.170
15.383,-0.160
15.386,-0.145
15.389,-0.135
15.392,-0.155
15.394,-0.155
15.397,-0.140
15.400,-0.110
15.403,-0.075
15.406,-0.040
15.408,-0.030
15.411,-0.005
15.414,0.020
15.417,0.060
15.419,0.155
15.422,0.235
15.425,0.295
15.428,0.360
15.431,0.440
15.433,0.525
15.436,0.615
15.439,0.705
15.442,0.785
15.444,0.885
15.447,0.950
15.450,1.025
15.453,1.120
15.456,1.185
15.458,1.240
15.461,1.275
15.464,1.380
15.467,1.490
15.469,1.545
15.472,1.535
15.475,1.465
15.478,1.410
15.481,1.360
15.483,1.330
15.486,1.295
15.489,1.255
15.492,1.225
15.494,1.190
15.497,1.145
15.500,1.130
15.503,1.115
15.506,1.090
15.508,1.065
15.511,1.050
15.514,1.045
15.517,0.985
15.519,0.895
15.522,0.785
15.525,0.625
15.528,0.435
15.531,0.250
15.533,0.110
15.536,-0.005
15.539,-0.100
15.542,-0.175
15.544,-0.235
15.547,-0.270
15.550,-0.285
15.553,-0.305
15.556,-0.345
15.558,-0.390
15.561,-0.450
15.564,-0.480
15.567,-0.485
15.569,-0.500
15.572,-0.525
15.575,-0.545
15.578,-0.590
15.581,-0.595
15.583,-0.595
15.586,-0.600
15.589,-0.605
15.592,-0.630
15.594,-0.640
15.597,-0.660
15.600,-0.655
15.603,-0.645
15.606,-0.655
15.608,-0.685
15.611,-0.715
15.614,-0.720
15.617,-0.710
15.619,-0.715
15.622,-0.725
15.625,-0.745
15.628,-0.775
15.631,-0.780
15.633,-0.785
15.636,-0.770
15.639,-0.770
15.642,-0.780
15.644,-0.795
15.647,-0.815
15.650,-0.800
15.653,-0.790
15.656,-0.810
15.658,-0.835
15.661,-0.845
15.664,-0.855
15.667,-0.835
15.669,-0.825
15.672,-0.830
15.675,-0.840
15.678,-0.840
15.681,-0.835
15.683,-0.810
15.686,-0.780
15.689,-0.780
15.692,-0.785
15.694,-0.785
15.697,-0.760
15.700,-0.715
15.703,-0.680
15.706,-0.660
15.708,-0.655
15.711,-0.635
15.714,-0.615
15.717,-0.590
15.719,-0.555
15.722,-0.535
15.725,-0.530
15.728,-0.500
15.731,-0.460
15.733,-0.425
15.736,-0.380
15.739,-0.355
15.742,-0.350
15.744,-0.340
15.747,-0.320
15.750,-0.295
15.753,-0.265
15.756,-0.260
15.758,-0.265
15.761,-0.275
15.764,-0.270
15.767,-0.245
15.769,-0.230
15.772,-0.220
15.775,-0.245
15.778,-0.250
15.781,-0.245
15.783,-0.230
15.786,-0.225
15.789,-0.220
15.792,-0.230
15.794,-0.245
15.797,-0.240
15.800,-0.225
15.803,-0.205
15.806,-0.225
15.808,-0.225
15.811,-0.235
15.814,-0.225
15.817,-0.205
15.819,-0.190
15.822,-0.190
15.825,-0.215
15.828,-0.235
15.831,-0.220
15.833,-0.215
15.836,-0.195
15.839,-0.185
15.842,-0.200
15.844,-0.200
15.847,-0.185
15.850,-0.185
15.853,-0.170
15.856,-0.185
15.858,-0.180
15.861,-0.200
15.864,-0.190
15.867,-0.190
15.869,-0.170
15.872,-0.170
15.875,-0.170
15.878,-0.180
15.881,-0.180
15.883,-0.165
15.886,-0.150
15.889,-0.160
15.892,-0.160
15.894,-0.175
15.897,-0.160
15.900,-0.145
15.903,-0.140
15.906,-0.145
15.908,-0.160
15.911,-0.160
15.914,-0.155
15.917,-0.140
15.919,-0.130
15.922,-0.130
15.925,-0.140
15.928,-0.155
15.931,-0.155
15.933,-0.145
15.936,-0.150
15.939,-0.140
15.942,-0.140
15.944,-0.150
15.947,-0.160
15.950,-0.165
15.953,-0.145
15.956,-0.135
15.958,-0.150
15.961,-0.160
15.964,-0.160
15.967,-0.145
15.969,-0.135
15.972,-0.140
15.975,-0.140
15.978,-0.140
15.981,-0.145
15.983,-0.145
15.986,-0.140
15.989,-0.135
15.992,-0.135
15.994,-0.140
15.997,-0.145
16.000,-0.135
16.003,-0.125
16.006,-0.125
16.008,-0.155
16.011,-0.145
16.014,-0.145
16.017,-0.125
16.019,-0.120
16.022,-0.130
16.025,-0.145
16.028,-0.155
16.031,-0.145
16.033,-0.120
16.036,-0.115
16.039,-0.115
16.042,-0.130
16.044,-0.130
16.047,-0.125
16.050,-0.120
16.053,-0.100
16.056,-0.100
16.058,-0.125
16.061,-0.150
16.064,-0.130
16.067,-0.110
16.069,-0.110
16.072,-0.110
16.075,-0.130
16.078,-0.130
16.081,-0.120
16.083,-0.125
16.086,-0.120
16.089,-0.125
16.092,-0.145
16.094,-0.140
16.097,-0.125
16.100,-0.105
16.103,-0.110
16.106,-0.115
16.108,-0.110
16.111,-0.125
16.114,-0.125
16.117,-0.105
16.119,-0.095
16.122,-0.095
16.125,-0.115
16.128,-0.135
16.131,-0.120
16.133,-0.100
16.136,-0.085
16.139,-0.080
16.142,-0.100
16.144,-0.115
16.147,-0.110
16.150,-0.095
16.153,-0.075
16.156,-0.100
16.158,-0.110
16.161,-0.130
16.164,-0.115
16.167,-0.095
16.169,-0.080
16.172,-0.090
16.175,-0.115
16.178,-0.115
16.181,-0.125
16.183,-0.110
16.186,-0.125
16.189,-0.115
16.192,-0.115
16.194,-0.120
16.197,-0.125
16.200,-0.110
16.203,-0.100
16.206,-0.105
16.208,-0.115
16.211,-0.125
16.214,-0.120
16.217,-0.105
16.219,-0.085
16.222,-0.080
16.225,-0.075
16.228,-0.085
16.231,-0.080
16.233,-0.070
16.236,-0.060
16.239,-0.040
16.242,-0.025
16.244,-0.030
16.247,-0.010
16.250,0.015
16.253,0.035
16.256,0.035
16.258,0.015
16.261,0.010
16.264,0.010
16.267,0.015
16.269,0.010
16.272,0.000
16.275,-0.015
16.278,-0.045
16.281,-0.050
16.283,-0.055
16.286,-0.055
16.289,-0.075
16.292,-0.090
16.294,-0.105
16.297,-0.120
16.300,-0.105
16.303,-0.115
16.306,-0.120
16.308,-0.140
16.311,-0.130
16.314,-0.140
16.317,-0.120
16.319,-0.105
16.322,-0.110
16.325,-0.130
16.328,-0.140
16.331,-0.135
16.333,-0.125
16.336,-0.115
16.339,-0.130
16.342,-0.120
16.344,-0.140
16.347,-0.135
16.350,-0.115
16.353,-0.125
16.356,-0.140
16.358,-0.140
16.361,-0.090
16.364,0.025
16.367,0.165
16.369,0.350
16.372,0.565
16.375,0.840
16.378,1.110
16.381,1.335
16.383,1.540
16.386,1.675
16.389,1.630
16.392,1.375
16.394,1.055
16.397,0.700
16.400,0.340
16.403,0.075
16.406,-0.085
16.408,-0.150
16.411,-0.150
16.414,-0.170
16.417,-0.180
16.419,-0.185
16.422,-0.170
16.425,-0.180
16.428,-0.180
16.431,-0.195
16.433,-0.185
16.436,-0.190
16.439,-0.200
16.442,-0.220
16.444,-0.255
16.447,-0.250
16.450,-0.245
16.453,-0.225
16.456,-0.235
16.458,-0.240
16.461,-0.265
16.464,-0.260
16.467,-0.245
16.469,-0.240
16.472,-0.225
16.475,-0.240
16.478,-0.235
16.481,-0.225
16.483,-0.220
16.486,-0.210
16.489,-0.225
16.492,-0.230
16.494,-0.245
16.497,-0.230
16.500,-0.240
16.503,-0.210
16.506,-0.215
16.508,-0.220
16.511,-0.235
16.514,-0.230
16.517,-0.210
16.519,-0.200
16.522,-0.195
16.525,-0.200
16.528,-0.220
16.531,-0.205
16.533,-0.180
16.536,-0.170
16.539,-0.170
16.542,-0.185
16.544,-0.190
16.547,-0.185
16.550,-0.155
16.553,-0.140
16.556,-0.135
16.558,-0.145
16.561,-0.135
16.564,-0.120
16.567,-0.085
16.569,-0.080
16.572,-0.075
16.575,-0.080
16.578,-0.080
16.581,-0.065
16.583,-0.035
16.586,-0.025
16.589,-0.010
16.592,-0.010
16.594,-0.010
16.597,0.000
16.600,0.025
16.603,0.045
16.606,0.055
16.608,0.035
16.611,0.050
16.614,0.045
16.617,0.080
16.619,0.095
16.622,0.085
16.625,0.090
16.628,0.080
16.631,0.100
16.633,0.110
16.636,0.135
16.639,0.130
16.642,0.120
16.644,0.120
16.647,0.120
16.650,0.140
16.653,0.150
16.656,0.130
16.658,0.105
16.661,0.090
16.664,0.070
16.667,0.070
16.669,0.060
16.672,0.045
16.675,0.020
16.678,-0.025
16.681,-0.035
16.683,-0.030
16.686,-0.040
16.689,-0.075
16.692,-0.100
16.694,-0.145
16.697,-0.150
16.700,-0.150
16.703,-0.150
16.706,-0.145
16.708,-0.185
16.711,-0.200
16.714,-0.205
16.717,-0.185
16.719,-0.185
16.722,-0.185
16.725,-0.205
16.728,-0.220
16.731,-0.230
16.733,-0.230
16.736,-0.225
16.739,-0.220
16.742,-0.220
16.744,-0.235
16.747,-0.225
16.750,-0.210
16.753,-0.205
16.756,-0.215
16.758,-0.235
16.761,-0.240
16.764,-0.235
16.767,-0.220
16.769,-0.215
16.772,-0.210
16.775,-0.230
16.778,-0.235
16.781,-0.225
16.783,-0.215
16.786,-0.205
16.789,-0.220
16.792,-0.235
16.794,-0.245
16.797,-0.230
16.800,-0.210
16.803,-0.210
16.806,-0.210
16.808,-0.230
16.811,-0.240
16.814,-0.230
16.817,-0.210
16.819,-0.205
16.822,-0.220
16.825,-0.225
16.828,-0.230
16.831,-0.220
16.833,-0.215
16.836,-0.200
16.839,-0.210
16.842,-0.225
16.844,-0.230
16.847,-0.220
16.850,-0.205
16.853,-0.210
16.856,-0.200
16.858,-0.200
16.861,-0.190
16.864,-0.175
16.867,-0.165
16.869,-0.150
16.872,-0.145
16.875,-0.155
16.878,-0.120
16.881,-0.085
16.883,-0.050
16.886,-0.010
16.889,-0.015
16.892,0.005
16.894,0.030
16.897,0.080
16.900,0.120
16.903,0.165
16.906,0.185
16.908,0.215
16.911,0.265
16.914,0.335
16.917,0.430
16.919,0.490
16.922,0.540
16.925,0.575
16.928,0.625
16.931,0.675
16.933,0.760
16.936,0.835
16.939,0.910
16.942,0.975
16.944,1.035
16.947,1.085
16.950,1.160
16.953,1.245
16.956,1.315
16.958,1.350
16.961,1.355
16.964,1.345
16.967,1.315
16.969,1.255
16.972,1.195
16.975,1.125
16.978,1.060
16.981,1.030
16.983,1.010
16.986,0.980
16.989,0.940
16.992,0.875
16.994,0.840
16.997,0.810
17.000,0.795
17.003,0.780
17.006,0.730
17.008,0.710
17.011,0.690
17.014,0.685
17.017,0.645
17.019,0.600
17.022,0.495
17.025,0.360
17.028,0.180
17.031,-0.005
17.033,-0.165
17.036,-0.315
17.039,-0.430
17.042,-0.535
17.044,-0.595
17.047,-0.635
17.050,-0.640
17.053,-0.645
17.056,-0.660
17.058,-0.700
17.061,-0.735
17.064,-0.745
17.067,-0.745
17.069,-0.750
17.072,-0.760
17.075,-0.785
17.078,-0.810
17.081,-0.800
17.083,-0.800
17.086,-0.800
17.089,-0.820
17.092,-0.830
17.094,-0.850
17.097,-0.840
17.100,-0.840
17.103,-0.850
17.106,-0.850
17.108,-0.875
17.111,-0.905
17.114,-0.905
17.117,-0.895
17.119,-0.900
17.122,-0.915
17.125,-0.935
17.128,-0.945
17.131,-0.975
17.133,-0.965
17.136,-0.960
17.139,-0.980
17.142,-1.000
17.144,-1.005
17.147,-1.010
17.150,-1.005
17.153,-1.015
17.156,-1.020
17.158,-1.050
17.161,-1.065
17.164,-1.065
17.167,-1.055
17.169,-1.050
17.172,-1.070
17.175,-1.100
17.178,-1.095
17.181,-1.090
17.183,-1.070
17.186,-1.065
17.189,-1.060
17.192,-1.060
17.194,-1.055
17.197,-1.050
17.200,-1.030
17.203,-1.015
17.206,-1.000
17.208,-0.985
17.211,-0.955
17.214,-0.920
17.217,-0.885
17.219,-0.865
17.222,-0.845
17.225,-0.815
17.228,-0.800
17.231,-0.770
17.233,-0.730
17.236,-0.695
17.239,-0.665
17.242,-0.650
17.244,-0.620
17.247,-0.575
17.250,-0.535
17.253,-0.515
17.256,-0.515
17.258,-0.515
17.261,-0.515
17.264,-0.495
17.267,-0.470
17.269,-0.455
17.272,-0.450
17.275,-0.460
17.278,-0.475
17.281,-0.475
17.283,-0.460
17.286,-0.455
17.289,-0.455
17.292,-0.465
17.294,-0.465
17.297,-0.465
17.300,-0.470
17.303,-0.455
17.306,-0.445
17.308,-0.450
17.311,-0.465
17.314,-0.465
17.317,-0.445
17.319,-0.455
17.322,-0.475
17.325,-0.495
17.328,-0.505
17.331,-0.495
17.333,-0.480
17.336,-0.480
17.339,-0.505
17.342,-0.525
17.344,-0.530
17.347,-0.530
17.350,-0.525
17.353,-0.515
17.356,-0.515
17.358,-0.500
17.361,-0.490
17.364,-0.460
17.367,-0.420
17.369,-0.380
17.372,-0.350
17.375,-0.340
17.378,-0.360
17.381,-0.355
17.383,-0.330
17.386,-0.310
17.389,-0.295
17.392,-0.290
17.394,-0.285
17.397,-0.265
17.400,-0.235
17.403,-0.240
17.406,-0.250
17.408,-0.270
17.411,-0.275
17.414,-0.260
17.417,-0.230
17.419,-0.205
17.422,-0.205
17.425,-0.210
17.428,-0.230
17.431,-0.240
17.433,-0.225
17.436,-0.205
17.439,-0.185
17.442,-0.180
17.444,-0.155
17.447,-0.145
17.450,-0.125
17.453,-0.120
17.456,-0.100
17.458,-0.085
17.461,-0.080
17.464,-0.040
17.467,0.010
17.469,0.070
17.472,0.130
17.475,0.195
17.478,0.280
17.481,0.365
17.483,0.455
17.486,0.550
17.489,0.625
17.492,0.695
17.494,0.775
17.497,0.875
17.500,0.975
17.503,1.090
17.506,1.160
17.508,1.240
17.511,1.315
17.514,1.380
17.517,1.415
17.519,1.395
17.522,1.375
17.525,1.300
17.528,1.220
17.531,1.165
17.533,1.155
17.536,1.165
17.539,1.160
17.542,1.115
17.544,1.065
17.547,1.035
17.550,1.005
17.553,0.965
17.556,0.925
17.558,0.900
17.561,0.880
17.564,0.900
17.567,0.900
17.569,0.850
17.572,0.730
17.575,0.540
17.578,0.315
17.581,0.090
17.583,-0.125
17.586,-0.300
17.589,-0.465
17.592,-0.605
17.594,-0.675
17.597,-0.715
17.600,-0.720
17.603,-0.725
17.606,-0.740
17.608,-0.775
17.611,-0.810
17.614,-0.830
17.617,-0.845
17.619,-0.855
17.622,-0.870
17.625,-0.915
17.628,-0.940
17.631,-0.905
17.633,-0.885
17.636,-0.890
17.639,-0.900
17.642,-0.925
17.644,-0.935
17.647,-0.935
17.650,-0.910
17.653,-0.925
17.656,-0.930
17.658,-0.945
17.661,-0.970
17.664,-0.970
17.667,-0.975
17.669,-0.990
17.672,-0.985
17.675,-1.005
17.678,-1.025
17.681,-1.030
17.683,-1.040
17.686,-1.045
17.689,-1.075
17.692,-1.110
17.694,-1.115
17.697,-1.110
17.700,-1.095
17.703,-1.085
17.706,-1.100
17.708,-1.135
17.711,-1.150
17.714,-1.130
17.717,-1.110
17.719,-1.115
17.722,-1.105
17.725,-1.125
17.728,-1.130
17.731,-1.100
17.733,-1.065
17.736,-1.045
17.739,-1.030
17.742,-1.025
17.744,-1.015
17.747,-1.000
17.750,-0.965
17.753,-0.935
17.756,-0.905
17.758,-0.870
17.761,-0.840
17.764,-0.795
17.767,-0.735
17.769,-0.695
17.772,-0.660
17.775,-0.645
17.778,-0.610
17.781,-0.565
17.783,-0.525
17.786,-0.480
17.789,-0.455
17.792,-0.450
17.794,-0.455
17.797,-0.425
17.800,-0.405
17.803,-0.385
17.806,-0.365
17.808,-0.365
17.811,-0.365
17.814,-0.350
17.817,-0.350
17.819,-0.350
17.822,-0.350
17.825,-0.370
17.828,-0.390
17.831,-0.370
17.833,-0.380
17.836,-0.390
17.839,-0.415
17.842,-0.445
17.844,-0.460
17.847,-0.455
17.850,-0.440
17.853,-0.425
17.856,-0.440
17.858,-0.460
17.861,-0.485
17.864,-0.475
17.867,-0.470
17.869,-0.460
17.872,-0.465
17.875,-0.470
17.878,-0.490
17.881,-0.480
17.883,-0.480
17.886,-0.475
17.889,-0.495
17.892,-0.505
17.894,-0.520
17.897,-0.520
17.900,-0.510
17.903,-0.490
17.906,-0.480
17.908,-0.500
17.911,-0.500
17.914,-0.495
17.917,-0.475
17.919,-0.465
17.922,-0.470
17.925,-0.480
17.928,-0.485
17.931,-0.465
17.933,-0.450
17.936,-0.450
17.939,-0.465
17.942,-0.480
17.944,-0.485
17.947,-0.485
17.950,-0.455
17.953,-0.435
17.956,-0.440
17.958,-0.450
17.961,-0.465
17.964,-0.470
17.967,-0.460
17.969,-0.460
17.972,-0.455
17.975,-0.470
17.978,-0.465
17.981,-0.465
17.983,-0.455
17.986,-0.455
17.989,-0.455
17.992,-0.475
17.994,-0.480
17.997,-0.465
18.000,-0.430
18.003,-0.415
18.006,-0.425
18.008,-0.440
18.011,-0.440
18.014,-0.425
18.017,-0.410
18.019,-0.405
18.022,-0.410
18.025,-0.400
18.028,-0.385
18.031,-0.355
18.033,-0.350
18.036,-0.365
18.039,-0.375
18.042,-0.390
18.044,-0.405
18.047,-0.385
18.050,-0.370
18.053,-0.385
18.056,-0.370
18.058,-0.400
18.061,-0.415
18.064,-0.415
18.067,-0.395
18.069,-0.370
18.072,-0.355
18.075,-0.360
18.078,-0.375
18.081,-0.390
18.083,-0.385
18.086,-0.375
18.089,-0.370
18.092,-0.375
18.094,-0.385
18.097,-0.350
18.100,-0.320
18.103,-0.310
18.106,-0.325
18.108,-0.340
18.111,-0.335
18.114,-0.300
18.117,-0.255
18.119,-0.240
18.122,-0.235
18.125,-0.255
18.128,-0.240
18.131,-0.210
18.133,-0.175
18.136,-0.125
18.139,-0.110
18.142,-0.125
18.144,-0.135
18.147,-0.130
18.150,-0.115
18.153,-0.115
18.156,-0.120
18.158,-0.150
18.161,-0.155
18.164,-0.160
18.167,-0.170
18.169,-0.170
18.172,-0.190
18.175,-0.250
18.178,-0.285
18.181,-0.275
18.183,-0.270
18.186,-0.260
18.189,-0.275
18.192,-0.305
18.194,-0.320
18.197,-0.330
18.200,-0.300
18.203,-0.305
18.206,-0.305
18.208,-0.315
18.211,-0.330
18.214,-0.325
18.217,-0.305
18.219,-0.295
18.222,-0.285
18.225,-0.300
18.228,-0.310
18.231,-0.330
18.233,-0.320
18.236,-0.300
18.239,-0.300
18.242,-0.305
18.244,-0.310
18.247,-0.305
18.250,-0.265
18.253,-0.165
18.256,-0.045
18.258,0.100
18.261,0.275
18.264,0.495
18.267,0.800
18.269,1.125
18.272,1.395
18.275,1.540
18.278,1.440
18.281,1.190
18.283,0.865
18.286,0.520
18.289,0.160
18.292,-0.130
18.294,-0.270
18.297,-0.265
18.300,-0.220
18.303,-0.205
18.306,-0.210
18.308,-0.225
18.311,-0.190
18.314,-0.185
18.317,-0.185
18.319,-0.220
18.322,-0.245
18.325,-0.270
18.328,-0.305
18.331,-0.295
18.333,-0.295
18.336,-0.295
18.339,-0.280
18.342,-0.300
18.344,-0.335
18.347,-0.325
18.350,-0.280
18.353,-0.240
18.356,-0.220
18.358,-0.190
18.361,-0.190
18.364,-0.220
18.367,-0.240
18.369,-0.235
18.372,-0.230
18.375,-0.250
18.378,-0.285
18.381,-0.305
18.383,-0.260
18.386,-0.205
18.389,-0.250
18.392,-0.380
18.394,-0.455
18.397,-0.445
18.400,-0.365
18.403,-0.320
18.406,-0.320
18.408,-0.335
18.411,-0.330
18.414,-0.310
18.417,-0.300
18.419,-0.330
18.422,-0.355
18.425,-0.365
18.428,-0.335
18.431,-0.275
18.433,-0.240
18.436,-0.200
18.439,-0.190
18.442,-0.190
18.444,-0.190
18.447,-0.185
18.450,-0.150
18.453,-0.120
18.456,-0.100
18.458,-0.095
18.461,-0.100
18.464,-0.090
18.467,-0.075
18.469,-0.055
18.472,-0.040
18.475,-0.015
18.478,0.005
18.481,0.035
18.483,0.035
18.486,0.050
18.489,0.030
18.492,0.040
18.494,0.065
18.497,0.135
18.500,0.195
18.503,0.210
18.506,0.155
18.508,0.055
18.511,0.005
18.514,0.010
18.517,0.035
18.519,0.050
18.522,0.040
18.525,0.020
18.528,0.000
18.531,0.005
18.533,-0.005
18.536,-0.015
18.539,-0.050
18.542,-0.090
18.544,-0.110
18.547,-0.145
18.550,-0.145
18.553,-0.135
18.556,-0.135
18.558,-0.120
18.561,-0.095
18.564,-0.055
18.567,-0.030
18.569,-0.080
18.572,-0.170
18.575,-0.260
18.578,-0.320
18.581,-0.360
18.583,-0.410
18.586,-0.430
18.589,-0.410
18.592,-0.400
18.594,-0.380
18.597,-0.370
18.600,-0.345
18.603,-0.315
18.606,-0.300
18.608,-0.295
18.611,-0.280
18.614,-0.280
18.617,-0.270
18.619,-0.270
18.622,-0.285
18.625,-0.305
18.628,-0.330
18.631,-0.330
18.633,-0.315
18.636,-0.300
18.639,-0.305
18.642,-0.315
18.644,-0.310
18.647,-0.295
18.650,-0.290
18.653,-0.275
18.656,-0.265
18.658,-0.265
18.661,-0.245
18.664,-0.215
18.667,-0.185
18.669,-0.165
18.672,-0.160
18.675,-0.165
18.678,-0.175
18.681,-0.155
18.683,-0.145
18.686,-0.095
18.689,-0.085
18.692,-0.080
18.694,-0.125
18.697,-0.130
18.700,-0.075
18.703,-0.025
18.706,-0.025
18.708,-0.095
18.711,-0.175
18.714,-0.160
18.717,-0.135
18.719,-0.180
18.722,-0.280
18.725,-0.390
18.728,-0.415
18.731,-0.365
18.733,-0.325
18.736,-0.330
18.739,-0.360
18.742,-0.375
18.744,-0.370
18.747,-0.360
18.750,-0.340
18.753,-0.340
18.756,-0.345
18.758,-0.375
18.761,-0.400
18.764,-0.405
18.767,-0.380
18.769,-0.365
18.772,-0.375
18.775,-0.385
18.778,-0.370
18.781,-0.315
18.783,-0.290
18.786,-0.260
18.789,-0.205
18.792,-0.145
18.794,-0.080
18.797,-0.005
18.800,0.140
18.803,0.380
18.806,0.610
18.808,0.855
18.811,1.140
18.814,1.495
18.817,1.840
18.819,2.105
18.822,2.250
18.825,2.190
18.828,1.900
18.831,1.485
18.833,1.015
18.836,0.535
18.839,0.160
18.842,-0.045
18.844,-0.150
18.847,-0.205
18.850,-0.260
18.853,-0.315
18.856,-0.365
18.858,-0.395
18.861,-0.400
18.864,-0.375
18.867,-0.330
18.869,-0.305
18.872,-0.255
18.875,-0.205
18.878,-0.165
18.881,-0.235
18.883,-0.430
18.886,-0.620
18.889,-0.690
18.892,-0.615
18.894,-0.545
18.897,-0.505
18.900,-0.515
18.903,-0.500
18.906,-0.485
18.908,-0.475
18.911,-0.515
18.914,-0.535
18.917,-0.530
18.919,-0.485
18.922,-0.465
18.925,-0.435
18.928,-0.435
18.931,-0.445
18.933,-0.485
18.936,-0.505
18.939,-0.510
18.942,-0.515
18.944,-0.530
18.947,-0.530
18.950,-0.535
18.953,-0.520
18.956,-0.485
18.958,-0.465
18.961,-0.440
18.964,-0.415
18.967,-0.420
18.969,-0.430
18.972,-0.425
18.975,-0.440
18.978,-0.450
18.981,-0.440
18.983,-0.395
18.986,-0.360
18.989,-0.370
18.992,-0.405
18.994,-0.460
18.997,-0.480
19.000,-0.465
19.003,-0.450
19.006,-0.410
19.008,-0.380
19.011,-0.345
19.014,-0.320
19.017,-0.305
19.019,-0.305
19.022,-0.320
19.025,-0.325
19.028,-0.295
19.031,-0.270
19.033,-0.250
19.036,-0.230
19.039,-0.215
19.042,-0.195
19.044,-0.200
19.047,-0.220
19.050,-0.215
19.053,-0.190
19.056,-0.145
19.058,-0.120
19.061,-0.120
19.064,-0.110
19.067,-0.135
19.069,-0.150
19.072,-0.150
19.075,-0.145
19.078,-0.100
19.081,-0.045
19.083,0.020
19.086,0.025
19.089,0.020
19.092,0.005
19.094,-0.005
19.097,-0.060
19.100,-0.120
19.103,-0.120
19.106,-0.115
19.108,-0.140
19.111,-0.210
19.114,-0.285
19.117,-0.405
19.119,-0.510
19.122,-0.630
19.125,-0.650
19.128,-0.535
19.131,-0.380
19.133,-0.320
19.136,-0.365
19.139,-0.400
19.142,-0.300
19.144,-0.115
19.147,-0.010
19.150,-0.090
19.153,-0.280
19.156,-0.420
19.158,-0.380
19.161,-0.250
19.164,-0.200
19.167,-0.285
19.169,-0.430
19.172,-0.485
19.175,-0.445
19.178,-0.360
19.181,-0.325
19.183,-0.320
19.186,-0.270
19.189,-0.225
19.192,-0.270
19.194,-0.340
19.197,-0.315
19.200,-0.215
19.203,-0.100
19.206,-0.065
19.208,-0.120
19.211,-0.230
19.214,-0.275
19.217,-0.155
19.219,0.015
19.222,0.080
19.225,0.015
19.228,-0.040
19.231,0.035
19.233,0.220
19.236,0.455
19.239,0.650
19.242,0.700
19.244,0.670
19.247,0.655
19.250,0.705
19.253,0.785
19.256,0.875
19.258,0.980
19.261,1.190
19.264,1.410
19.267,1.575
19.269,1.620
19.272,1.645
19.275,1.625
19.278,1.650
19.281,1.765
19.283,1.970
19.286,2.010
19.289,1.815
19.292,1.570
19.294,1.495
19.297,1.485
19.300,1.495
19.303,1.425
19.306,1.380
19.308,1.305
19.311,1.205
19.314,1.085
19.317,0.990
19.319,1.025
19.322,1.070
19.325,1.085
19.328,1.060
19.331,1.025
19.333,0.960
19.336,0.830
19.339,0.615
19.342,0.360
19.344,0.145
19.347,-0.045
19.350,-0.160
19.353,-0.140
19.356,-0.060
19.358,-0.025
19.361,-0.025
19.364,-0.080
19.367,-0.210
19.369,-0.320
19.372,-0.315
19.375,-0.210
19.378,-0.120
19.381,-0.080
19.383,-0.175
19.386,-0.340
19.389,-0.460
19.392,-0.500
19.394,-0.460
19.397,-0.315
19.400,-0.185
19.403,-0.125
19.406,-0.105
19.408,-0.105
19.411,-0.185
19.414,-0.320
19.417,-0.445
19.419,-0.550
19.422,-0.575
19.425,-0.475
19.428,-0.325
19.431,-0.265
19.433,-0.250
19.436,-0.295
19.439,-0.390
19.442,-0.525
19.444,-0.595
19.447,-0.480
19.450,-0.345
19.453,-0.350
19.456,-0.460
19.458,-0.500
19.461,-0.565
19.464,-0.670
19.467,-0.735
19.469,-0.755
19.472,-0.755
19.475,-0.690
19.478,-0.570
19.481,-0.520
19.483,-0.500
19.486,-0.460
19.489,-0.370
19.492,-0.355
19.494,-0.400
19.497,-0.470
19.500,-0.550
19.503,-0.655
19.506,-0.665
19.508,-0.535
19.511,-0.375
19.514,-0.280
19.517,-0.240
19.519,-0.230
19.522,-0.195
19.525,-0.150
19.528,-0.095
19.531,-0.045
19.533,-0.020
19.536,-0.030
19.539,-0.055
19.542,-0.085
19.544,-0.085
19.547,-0.035
19.550,0.025
19.553,0.035
19.556,0.015
19.558,-0.025
19.561,-0.035
19.564,0.000
19.567,0.040
19.569,0.055
19.572,0.060
19.575,0.035
19.578,0.000
19.581,-0.020
19.583,-0.040
19.586,-0.065
19.589,-0.075
19.592,-0.060
19.594,-0.075
19.597,-0.065
19.600,-0.065
19.603,-0.080
19.606,-0.105
19.608,-0.120
19.611,-0.130
19.614,-0.120
19.617,-0.080
19.619,-0.065
19.622,-0.075
19.625,-0.115
19.628,-0.145
19.631,-0.135
19.633,-0.120
19.636,-0.125
19.639,-0.150
19.642,-0.130
19.644,-0.105
19.647,-0.075
19.650,-0.100
19.653,-0.130
19.656,-0.155
19.658,-0.165
19.661,-0.160
19.664,-0.145
19.667,-0.110
19.669,-0.105
19.672,-0.120
19.675,-0.140
19.678,-0.155
19.681,-0.140
19.683,-0.130
19.686,-0.110
19.689,-0.110
19.692,-0.110
19.694,-0.120
19.697,-0.105
19.700,-0.085
19.703,-0.060
19.706,-0.050
19.708,-0.055
19.711,-0.060
19.714,-0.055
19.717,-0.050
19.719,-0.075
19.722,-0.090
19.725,-0.085
19.728,-0.080
19.731,-0.065
19.733,-0.070
19.736,-0.080
19.739,-0.075
19.742,-0.070
19.744,-0.080
19.747,-0.070
19.750,-0.045
19.753,-0.035
19.756,-0.040
19.758,-0.045
19.761,-0.035
19.764,0.005
19.767,0.030
19.769,0.065
19.772,0.080
19.775,0.095
19.778,0.130
19.781,0.140
19.783,0.135
19.786,0.135
19.789,0.125
19.792,0.100
19.794,0.085
19.797,0.080
19.800,0.090
19.803,0.095
19.806,0.085
19.808,0.040
19.811,-0.010
19.814,-0.035
19.817,-0.020
19.819,-0.040
19.822,-0.045
19.825,-0.065
19.828,-0.085
19.831,-0.085
19.833,-0.085
19.836,-0.080
19.839,-0.070
19.842,-0.080
19.844,-0.085
19.847,-0.080
19.850,-0.040
19.853,-0.040
19.856,-0.035
19.858,-0.065
19.861,-0.085
19.864,-0.075
19.867,-0.065
19.869,-0.040
19.872,-0.025
19.875,-0.030
19.878,-0.040
19.881,-0.045
19.883,-0.040
19.886,-0.025
19.889,-0.030
19.892,-0.005
19.894,0.055
19.897,0.185
19.900,0.365
19.903,0.595
19.906,0.890
19.908,1.210
19.911,1.505
19.914,1.765
19.917,1.850
19.919,1.680
19.922,1.270
19.925,0.765
19.928,0.315
19.931,0.070
19.933,0.005
19.936,0.010
19.939,0.010
19.942,-0.005
19.944,-0.015
19.947,0.015
19.950,0.035
19.953,0.010
19.956,-0.025
19.958,-0.070
19.961,-0.080
19.964,-0.090
19.967,-0.090
19.969,-0.080
19.972,-0.075
19.975,-0.100
19.978,-0.105
19.981,-0.090
19.983,-0.060
19.986,-0.070
19.989,-0.080
19.992,-0.135
19.994,-0.130
19.997,-0.110
20.000,-0.085
20.003,-0.095
20.006,-0.125
20.008,-0.150
20.011,-0.165
20.014,-0.135
20.017,-0.115
20.019,-0.105
20.022,-0.105
20.025,-0.115
20.028,-0.125
20.031,-0.125
20.033,-0.110
20.036,-0.090
20.039,-0.085
20.042,-0.105
20.044,-0.100
20.047,-0.065
20.050,-0.035
20.053,-0.020
20.056,-0.030
20.058,-0.055
20.061,-0.045
20.064,-0.040
20.067,0.000
20.069,0.025
20.072,0.030
20.075,0.030
20.078,0.035
20.081,0.030
20.083,0.035
20.086,0.070
20.089,0.075
20.092,0.075
20.094,0.115
20.097,0.160
20.100,0.215
20.103,0.240
20.106,0.240
20.108,0.235
20.111,0.240
20.114,0.285
20.117,0.320
20.119,0.375
20.122,0.390
20.125,0.410
20.128,0.420
20.131,0.450
20.133,0.460
20.136,0.470
20.139,0.460
20.142,0.415
20.144,0.385
20.147,0.385
20.150,0.340
20.153,0.305
20.156,0.265
20.158,0.215
20.161,0.180
20.164,0.135
20.167,0.110
20.169,0.100
20.172,0.045
20.175,0.000
20.178,-0.030
20.181,-0.050
20.183,-0.050
20.186,-0.060
20.189,-0.085
20.192,-0.095
20.194,-0.125
20.197,-0.125
20.200,-0.135
20.203,-0.150
20.206,-0.175
20.208,-0.190
20.211,-0.195
20.214,-0.175
20.217,-0.165
20.219,-0.155
20.222,-0.175
20.225,-0.200
20.228,-0.215
20.231,-0.240
20.233,-0.225
20.236,-0.220
20.239,-0.225
20.242,-0.245
20.244,-0.255
20.247,-0.275
20.250,-0.265
20.253,-0.300
20.256,-0.315
20.258,-0.360
20.261,-0.385
20.264,-0.400
20.267,-0.395
20.269,-0.390
20.272,-0.385
20.275,-0.420
20.278,-0.490
20.281,-0.520
20.283,-0.540
20.286,-0.550
20.289,-0.515
20.292,-0.400
20.294,-0.265
20.297,-0.220
20.300,-0.205
20.303,-0.110
20.306,-0.035
20.308,-0.060
20.311,-0.110
20.314,-0.100
20.317,-0.050
20.319,-0.015
20.322,0.005
20.325,0.035
20.328,0.055
20.331,0.025
20.333,-0.015
20.336,-0.070
20.339,-0.125
20.342,-0.155
20.344,-0.150
20.347,-0.120
20.350,-0.070
20.353,-0.075
20.356,-0.070
20.358,-0.095
20.361,-0.110
20.364,-0.110
20.367,-0.080
20.369,-0.080
20.372,-0.085
20.375,-0.090
20.378,-0.090
20.381,-0.070
20.383,-0.040
20.386,-0.035
20.389,-0.030
20.392,-0.015
20.394,0.045
20.397,0.170
20.400,0.375
20.403,0.655
20.406,0.930
20.408,1.185
20.411,1.440
20.414,1.660
20.417,1.745
20.419,1.570
20.422,1.190
20.425,0.745
20.428,0.375
20.431,0.130
20.433,0.025
20.436,0.015
20.439,0.030
20.442,0.050
20.444,0.045
20.447,0.040
20.450,0.075
20.453,0.075
20.456,0.085
20.458,0.065
20.461,0.040
20.464,0.010
20.467,-0.005
20.469,-0.035
20.472,-0.055
20.475,-0.095
20.478,-0.125
20.481,-0.130
20.483,-0.110
20.486,-0.095
20.489,-0.100
20.492,-0.110
20.494,-0.125
20.497,-0.120
20.500,-0.100
20.503,-0.090
20.506,-0.080
20.508,-0.085
20.511,-0.070
20.514,-0.045
20.517,0.015
20.519,0.070
20.522,0.095
20.525,0.110
20.528,0.090
20.531,0.075
20.533,0.070
20.536,0.045
20.539,0.010
20.542,-0.015
20.544,0.005
20.547,0.050
20.550,0.045
20.553,0.005
20.556,-0.035
20.558,-0.060
20.561,-0.040
20.564,-0.010
20.567,0.010
20.569,0.015
20.572,-0.005
20.575,-0.020
20.578,-0.030
20.581,-0.015
20.583,0.020
20.586,0.045
20.589,0.035
20.592,0.040
20.594,0.060
20.597,0.095
20.600,0.120
20.603,0.125
20.606,0.130
20.608,0.130
20.611,0.145
20.614,0.155
20.617,0.180
20.619,0.220
20.622,0.230
20.625,0.250
20.628,0.270
20.631,0.295
20.633,0.385
20.636,0.415
20.639,0.420
20.642,0.370
20.644,0.325
20.647,0.355
20.650,0.405
20.653,0.435
20.656,0.445
20.658,0.395
20.661,0.340
20.664,0.295
20.667,0.265
20.669,0.255
20.672,0.245
20.675,0.240
20.678,0.260
20.681,0.280
20.683,0.280
20.686,0.270
20.689,0.225
20.692,0.200
20.694,0.175
20.697,0.225
20.700,0.240
20.703,0.225
20.706,0.175
20.708,0.120
20.711,0.105
20.714,0.135
20.717,0.160
20.719,0.155
20.722,0.120
20.725,0.090
20.728,0.090
20.731,0.105
20.733,0.120
20.736,0.110
20.739,0.105
20.742,0.075
20.744,0.075
20.747,0.080
20.750,0.090
20.753,0.065
20.756,0.045
20.758,0.040
20.761,0.010
20.764,0.015
20.767,0.040
20.769,0.050
20.772,0.015
20.775,-0.030
20.778,-0.050
20.781,-0.025
20.783,-0.010
20.786,-0.025
20.789,-0.035
20.792,-0.045
20.794,-0.045
20.797,-0.040
20.800,0.005
20.803,0.020
20.806,0.005
20.808,-0.015
20.811,-0.030
20.814,-0.015
20.817,0.020
20.819,0.035
20.822,0.055
20.825,0.070
20.828,0.105
20.831,0.120
20.833,0.145
20.836,0.150
20.839,0.170
20.842,0.170
20.844,0.165
20.847,0.130
20.850,0.090
20.853,0.080
20.856,0.065
20.858,0.065
20.861,0.040
20.864,0.025
20.867,0.020
20.869,0.015
20.872,0.005
20.875,-0.005
20.878,-0.035
20.881,-0.055
20.883,-0.040
20.886,-0.015
20.889,0.005
20.892,0.025
20.894,0.045
20.897,0.090
20.900,0.140
20.903,0.220
20.906,0.260
20.908,0.275
20.911,0.315
20.914,0.375
20.917,0.490
20.919,0.565
20.922,0.600
20.925,0.620
20.928,0.670
20.931,0.745
20.933,0.855
20.936,0.900
20.939,0.930
20.942,0.980
20.944,1.070
20.947,1.250
20.950,1.480
20.953,1.720
20.956,1.865
20.958,1.975
20.961,1.990
20.964,2.050
20.967,2.100
20.969,2.050
20.972,1.820
20.975,1.410
20.978,0.965
20.981,0.600
20.983,0.335
20.986,0.180
20.989,0.080
20.992,-0.030
20.994,-0.140
20.997,-0.245
21.000,-0.305
21.003,-0.310
21.006,-0.310
21.008,-0.350
21.011,-0.380
21.014,-0.375
21.017,-0.375
21.019,-0.355
21.022,-0.380
21.025,-0.380
21.028,-0.430
21.031,-0.475
21.033,-0.490
21.036,-0.490
21.039,-0.485
21.042,-0.505
21.044,-0.510
21.047,-0.520
21.050,-0.510
21.053,-0.520
21.056,-0.535
21.058,-0.565
21.061,-0.570
21.064,-0.565
21.067,-0.565
21.069,-0.590
21.072,-0.630
21.075,-0.670
21.078,-0.685
21.081,-0.695
21.083,-0.680
21.086,-0.635
21.089,-0.655
21.092,-0.670
21.094,-0.685
21.097,-0.680
21.100,-0.695
21.103,-0.700
21.106,-0.685
21.108,-0.690
21.111,-0.710
21.114,-0.745
21.117,-0.770
21.119,-0.800
21.122,-0.810
21.125,-0.830
21.128,-0.835
21.131,-0.830
21.133,-0.775
21.136,-0.770
21.139,-0.775
21.142,-0.805
21.144,-0.795
21.147,-0.760
21.150,-0.725
21.153,-0.695
21.156,-0.680
21.158,-0.715
21.161,-0.735
21.164,-0.725
21.167,-0.720
21.169,-0.705
21.172,-0.685
21.175,-0.685
21.178,-0.675
21.181,-0.650
21.183,-0.620
21.186,-0.625
21.189,-0.625
21.192,-0.625
21.194,-0.625
21.197,-0.590
21.200,-0.540
21.203,-0.510
21.206,-0.505
21.208,-0.510
21.211,-0.495
21.214,-0.450
21.217,-0.430
21.219,-0.400
21.222,-0.370
21.225,-0.375
21.228,-0.375
21.231,-0.380
21.233,-0.350
21.236,-0.350
21.239,-0.380
21.242,-0.395
21.244,-0.400
21.247,-0.395
21.250,-0.375
21.253,-0.370
21.256,-0.380
21.258,-0.395
21.261,-0.415
21.264,-0.425
21.267,-0.425
21.269,-0.440
21.272,-0.455
21.275,-0.465
21.278,-0.465
21.281,-0.465
21.283,-0.445
21.286,-0.465
21.289,-0.485
21.292,-0.500
21.294,-0.525
21.297,-0.505
21.300,-0.490
21.303,-0.500
21.306,-0.515
21.308,-0.530
21.311,-0.520
21.314,-0.520
21.317,-0.515
21.319,-0.500
21.322,-0.490
21.325,-0.510
21.328,-0.515
21.331,-0.500
21.333,-0.470
21.336,-0.450
21.339,-0.445
21.342,-0.460
21.344,-0.465
21.347,-0.430
21.350,-0.400
21.353,-0.385
21.356,-0.380
21.358,-0.370
21.361,-0.360
21.364,-0.345
21.367,-0.320
21.369,-0.290
21.372,-0.280
21.375,-0.260
21.378,-0.245
21.381,-0.235
21.383,-0.220
21.386,-0.220
21.389,-0.220
21.392,-0.225
21.394,-0.210
21.397,-0.200
21.400,-0.190
21.403,-0.195
21.406,-0.230
21.408,-0.260
21.411,-0.285
21.414,-0.310
21.417,-0.305
21.419,-0.330
21.422,-0.365
21.425,-0.400
21.428,-0.420
21.431,-0.410
21.433,-0.415
21.436,-0.425
21.439,-0.465
21.442,-0.500
21.444,-0.525
21.447,-0.525
21.450,-0.535
21.453,-0.550
21.456,-0.570
21.458,-0.580
21.461,-0.575
21.464,-0.570
21.467,-0.565
21.469,-0.550
21.472,-0.550
21.475,-0.575
21.478,-0.585
21.481,-0.595
21.483,-0.590
21.486,-0.580
21.489,-0.595
21.492,-0.630
21.494,-0.685
21.497,-0.700
21.500,-0.685
21.503,-0.610
21.506,-0.505
21.508,-0.350
21.511,-0.165
21.514,0.075
21.517,0.315
21.519,0.530
21.522,0.735
21.525,0.910
21.528,1.020
21.531,0.960
21.533,0.710
21.536,0.340
21.539,-0.045
21.542,-0.350
21.544,-0.550
21.547,-0.595
21.550,-0.615
21.553,-0.635
21.556,-0.680
21.558,-0.725
21.561,-0.720
21.564,-0.680
21.567,-0.635
21.569,-0.625
21.572,-0.665
21.575,-0.690
21.578,-0.700
21.581,-0.705
21.583,-0.715
21.586,-0.730
21.589,-0.735
21.592,-0.760
21.594,-0.750
21.597,-0.720
21.600,-0.690
21.603,-0.680
21.606,-0.690
21.608,-0.700
21.611,-0.700
21.614,-0.660
21.617,-0.630
21.619,-0.620
21.622,-0.625
21.625,-0.640
21.628,-0.645
21.631,-0.625
21.633,-0.610
21.636,-0.590
21.639,-0.600
21.642,-0.600
21.644,-0.600
21.647,-0.585
21.650,-0.575
21.653,-0.565
21.656,-0.580
21.658,-0.570
21.661,-0.560
21.664,-0.545
21.667,-0.530
21.669,-0.520
21.672,-0.530
21.675,-0.555
21.678,-0.565
21.681,-0.545
21.683,-0.520
21.686,-0.505
21.689,-0.505
21.692,-0.505
21.694,-0.505
21.697,-0.490
21.700,-0.465
21.703,-0.465
21.706,-0.460
21.708,-0.470
21.711,-0.475
21.714,-0.445
21.717,-0.435
21.719,-0.435
21.722,-0.450
21.725,-0.470
21.728,-0.470
21.731,-0.465
21.733,-0.455
21.736,-0.435
21.739,-0.450
21.742,-0.465
21.744,-0.450
21.747,-0.410
21.750,-0.370
21.753,-0.345
21.756,-0.330
21.758,-0.355
21.761,-0.375
21.764,-0.355
21.767,-0.345
21.769,-0.320
21.772,-0.335
21.775,-0.350
21.778,-0.360
21.781,-0.350
21.783,-0.340
21.786,-0.345
21.789,-0.355
21.792,-0.380
21.794,-0.395
21.797,-0.415
21.800,-0.415
21.803,-0.415
21.806,-0.450
21.808,-0.470
21.811,-0.505
21.814,-0.520
21.817,-0.525
21.819,-0.530
21.822,-0.535
21.825,-0.575
21.828,-0.605
21.831,-0.595
21.833,-0.585
21.836,-0.585
21.839,-0.605
21.842,-0.620
21.844,-0.635
21.847,-0.630
21.850,-0.605
21.853,-0.600
21.856,-0.600
21.858,-0.625
21.861,-0.630
21.864,-0.645
21.867,-0.625
21.869,-0.615
21.872,-0.610
21.875,-0.630
21.878,-0.635
21.881,-0.630
21.883,-0.605
21.886,-0.595
21.889,-0.600
21.892,-0.620
21.894,-0.600
21.897,-0.600
21.900,-0.585
21.903,-0.575
21.906,-0.580
21.908,-0.585
21.911,-0.590
21.914,-0.585
21.917,-0.560
21.919,-0.530
21.922,-0.515
21.925,-0.505
21.928,-0.510
21.931,-0.505
21.933,-0.505
21.936,-0.475
21.939,-0.440
21.942,-0.435
21.944,-0.425
21.947,-0.425
21.950,-0.405
21.953,-0.405
21.956,-0.395
21.958,-0.405
21.961,-0.420
21.964,-0.435
21.967,-0.445
21.969,-0.440
21.972,-0.460
21.975,-0.500
21.978,-0.535
21.981,-0.545
21.983,-0.540
21.986,-0.550
21.989,-0.565
21.992,-0.600
21.994,-0.600
21.997,-0.600
22.000,-0.585
22.003,-0.585
22.006,-0.575
22.008,-0.610
22.011,-0.645
22.014,-0.655
22.017,-0.650
22.019,-0.625
22.022,-0.610
22.025,-0.635
22.028,-0.655
22.031,-0.655
22.033,-0.650
22.036,-0.645
22.039,-0.665
22.042,-0.675
22.044,-0.690
22.047,-0.710
22.050,-0.700
22.053,-0.700
22.056,-0.695
22.058,-0.720
22.061,-0.700
22.064,-0.615
22.067,-0.445
22.069,-0.255
22.072,-0.050
22.075,0.170
22.078,0.430
22.081,0.705
22.083,0.950
22.086,1.105
22.089,1.035
22.092,0.720
22.094,0.285
22.097,-0.145
22.100,-0.495
22.103,-0.695
22.106,-0.765
22.108,-0.775
22.111,-0.740
22.114,-0.715
22.117,-0.685
22.119,-0.630
22.122,-0.610
22.125,-0.625
22.128,-0.645
22.131,-0.635
22.133,-0.630
22.136,-0.625
22.139,-0.630
22.142,-0.635
22.144,-0.650
22.147,-0.640
22.150,-0.610
22.153,-0.600
22.156,-0.595
22.158,-0.605
22.161,-0.625
22.164,-0.615
22.167,-0.595
22.169,-0.580
22.172,-0.600
22.175,-0.590
22.178,-0.590
22.181,-0.575
22.183,-0.555
22.186,-0.545
22.189,-0.540
22.192,-0.545
22.194,-0.545
22.197,-0.535
22.200,-0.515
22.203,-0.500
22.206,-0.505
22.208,-0.510
22.211,-0.515
22.214,-0.485
22.217,-0.470
22.219,-0.470
22.222,-0.460
22.225,-0.445
22.228,-0.450
22.231,-0.425
22.233,-0.395
22.236,-0.365
22.239,-0.365
22.242,-0.375
22.244,-0.380
22.247,-0.360
22.250,-0.325
22.253,-0.305
22.256,-0.295
22.258,-0.295
22.261,-0.285
22.264,-0.250
22.267,-0.230
22.269,-0.195
22.272,-0.200
22.275,-0.210
22.278,-0.195
22.281,-0.170
22.283,-0.145
22.286,-0.125
22.289,-0.110
22.292,-0.115
22.294,-0.115
22.297,-0.085
22.300,-0.070
22.303,-0.060
22.306,-0.065
22.308,-0.090
22.311,-0.075
22.314,-0.060
22.317,-0.020
22.319,-0.010
22.322,-0.010
22.325,-0.035
22.328,-0.060
22.331,-0.035
22.333,0.005
22.336,0.010
22.339,-0.010
22.342,-0.025
22.344,-0.035
22.347,-0.030
22.350,-0.040
22.353,-0.040
22.356,-0.065
22.358,-0.095
22.361,-0.120
22.364,-0.115
22.367,-0.115
22.369,-0.125
22.372,-0.155
22.375,-0.200
22.378,-0.210
22.381,-0.190
22.383,-0.185
22.386,-0.195
22.389,-0.215
22.392,-0.240
22.394,-0.260
22.397,-0.260
22.400,-0.245
22.403,-0.240
22.406,-0.200
22.408,-0.190
22.411,-0.190
22.414,-0.190
22.417,-0.195
22.419,-0.210
22.422,-0.215
22.425,-0.210
22.428,-0.225
22.431,-0.225
22.433,-0.230
22.436,-0.230
22.439,-0.245
22.442,-0.255
22.444,-0.260
22.447,-0.240
22.450,-0.210
22.453,-0.200
22.456,-0.200
22.458,-0.220
22.461,-0.215
22.464,-0.215
22.467,-0.200
22.469,-0.195
22.472,-0.190
22.475,-0.190
22.478,-0.190
22.481,-0.175
22.483,-0.150
22.486,-0.110
22.489,-0.100
22.492,-0.130
22.494,-0.140
22.497,-0.140
22.500,-0.120
22.503,-0.120
22.506,-0.140
22.508,-0.155
22.511,-0.155
22.514,-0.150
22.517,-0.165
22.519,-0.175
22.522,-0.195
22.525,-0.225
22.528,-0.260
22.531,-0.265
22.533,-0.245
22.536,-0.250
22.539,-0.235
22.542,-0.240
22.544,-0.240
22.547,-0.255
22.550,-0.235
22.553,-0.235
22.556,-0.235
22.558,-0.220
22.561,-0.235
22.564,-0.220
22.567,-0.205
22.569,-0.195
22.572,-0.190
22.575,-0.195
22.578,-0.180
22.581,-0.175
22.583,-0.150
22.586,-0.150
22.589,-0.140
22.592,-0.130
22.594,-0.135
22.597,-0.125
22.600,-0.130
22.603,-0.125
22.606,-0.065
22.608,0.035
22.611,0.175
22.614,0.370
22.617,0.605
22.619,0.885
22.622,1.175
22.625,1.460
22.628,1.735
22.631,1.950
22.633,1.935
22.636,1.650
22.639,1.200
22.642,0.740
22.644,0.345
22.647,0.110
22.650,0.030
22.653,0.000
22.656,-0.015
22.658,-0.050
22.661,-0.060
22.664,-0.050
22.667,-0.035
22.669,-0.035
22.672,-0.060
22.675,-0.070
22.678,-0.085
22.681,-0.100
22.683,-0.100
22.686,-0.120
22.689,-0.130
22.692,-0.145
22.694,-0.130
22.697,-0.115
22.700,-0.090
22.703,-0.100
22.706,-0.105
22.708,-0.130
22.711,-0.125
22.714,-0.100
22.717,-0.085
22.719,-0.080
22.722,-0.110
22.725,-0.120
22.728,-0.135
22.731,-0.130
22.733,-0.100
22.736,-0.075
22.739,-0.060
22.742,-0.070
22.744,-0.070
22.747,-0.070
22.750,-0.065
22.753,-0.055
22.756,-0.045
22.758,-0.050
22.761,-0.070
22.764,-0.065
22.767,-0.040
22.769,-0.020
22.772,-0.015
22.775,-0.035
22.778,-0.050
22.781,-0.040
22.783,-0.020
22.786,0.000
22.789,0.020
22.792,0.005
22.794,0.015
22.797,0.015
22.800,0.040
22.803,0.055
22.806,0.050
22.808,0.040
22.811,0.060
22.814,0.085
22.817,0.120
22.819,0.130
22.822,0.125
22.825,0.105
22.828,0.105
22.831,0.125
22.833,0.150
22.836,0.180
22.839,0.185
22.842,0.180
22.844,0.195
22.847,0.220
22.850,0.250
22.853,0.260
22.856,0.245
22.858,0.235
22.861,0.255
22.864,0.295
22.867,0.320
22.869,0.320
22.872,0.310
22.875,0.300
22.878,0.305
22.881,0.295
22.883,0.285
22.886,0.295
22.889,0.295
22.892,0.280
22.894,0.265
22.897,0.265
22.900,0.280
22.903,0.280
22.906,0.285
22.908,0.280
22.911,0.260
22.914,0.255
22.917,0.255
22.919,0.270
22.922,0.290
22.925,0.280
22.928,0.250
22.931,0.230
22.933,0.245
22.936,0.265
22.939,0.285
22.942,0.270
22.944,0.265
22.947,0.265
22.950,0.265
22.953,0.265
22.956,0.260
22.958,0.245
22.961,0.240
22.964,0.240
22.967,0.275
22.969,0.295
22.972,0.280
22.975,0.255
22.978,0.255
22.981,0.290
22.983,0.295
22.986,0.305
22.989,0.290
22.992,0.275
22.994,0.280
22.997,0.310
23.000,0.335
23.003,0.365
23.006,0.370
23.008,0.355
23.011,0.365
23.014,0.390
23.017,0.435
23.019,0.455
23.022,0.460
23.025,0.445
23.028,0.440
23.031,0.455
23.033,0.490
23.036,0.520
23.039,0.500
23.042,0.500
23.044,0.515
23.047,0.540
23.050,0.580
23.053,0.645
23.056,0.660
23.058,0.670
23.061,0.710
23.064,0.780
23.067,0.880
23.069,0.965
23.072,1.030
23.075,1.070
23.078,1.155
23.081,1.225
23.083,1.330
23.086,1.450
23.089,1.580
23.092,1.670
23.094,1.760
23.097,1.880
23.100,1.995
23.103,2.050
23.106,2.040
23.108,1.985
23.111,1.895
23.114,1.810
23.117,1.725
23.119,1.635
23.122,1.545
23.125,1.445
23.128,1.360
23.131,1.295
23.133,1.265
23.136,1.210
23.139,1.150
23.142,1.075
23.144,1.050
23.147,1.045
23.150,1.070
23.153,1.055
23.156,1.015
23.158,0.925
23.161,0.855
23.164,0.770
23.167,0.660
23.169,0.510
23.172,0.340
23.175,0.210
23.178,0.100
23.181,0.035
23.183,0.015
23.186,-0.020
23.189,-0.050
23.192,-0.090
23.194,-0.115
23.197,-0.115
23.200,-0.120
23.203,-0.130
23.206,-0.150
23.208,-0.175
23.211,-0.170
23.214,-0.185
23.217,-0.190
23.219,-0.180
23.222,-0.190
23.225,-0.205
23.228,-0.235
23.231,-0.225
23.233,-0.220
23.236,-0.230
23.239,-0.240
23.242,-0.270
23.244,-0.310
23.247,-0.320
23.250,-0.315
23.253,-0.330
23.256,-0.340
23.258,-0.385
23.261,-0.420
23.264,-0.430
23.267,-0.430
23.269,-0.420
23.272,-0.430
23.275,-0.460
23.278,-0.490
23.281,-0.495
23.283,-0.500
23.286,-0.485
23.289,-0.495
23.292,-0.515
23.294,-0.540
23.297,-0.530
23.300,-0.515
23.303,-0.505
23.306,-0.525
23.308,-0.535
23.311,-0.540
23.314,-0.505
23.317,-0.495
23.319,-0.485
23.322,-0.470
23.325,-0.460
23.328,-0.445
23.331,-0.415
23.333,-0.370
23.336,-0.345
23.339,-0.310
23.342,-0.305
23.344,-0.270
23.347,-0.210
23.350,-0.140
23.353,-0.080
23.356,-0.040
23.358,-0.015
23.361,0.010
23.364,0.070
23.367,0.145
23.369,0.195
23.372,0.245
23.375,0.270
23.378,0.305
23.381,0.340
23.383,0.400
23.386,0.430
23.389,0.440
23.392,0.420
23.394,0.455
23.397,0.475
23.400,0.515
23.403,0.520
23.406,0.515
23.408,0.490
23.411,0.480
23.414,0.485
23.417,0.490
23.419,0.505
23.422,0.490
23.425,0.465
23.428,0.450
23.431,0.460
23.433,0.465
23.436,0.470
23.439,0.470
23.442,0.475
23.444,0.470
23.447,0.470
23.450,0.490
23.453,0.500
23.456,0.490
23.458,0.475
23.461,0.450
23.464,0.485
23.467,0.505
23.469,0.515
23.472,0.505
23.475,0.490
23.478,0.495
23.481,0.520
23.483,0.530
23.486,0.520
23.489,0.520
23.492,0.510
23.494,0.500
23.497,0.505
23.500,0.515
23.503,0.535
23.506,0.530
23.508,0.505
23.511,0.505
23.514,0.520
23.517,0.520
23.519,0.520
23.522,0.515
23.525,0.510
23.528,0.510
23.531,0.520
23.533,0.545
23.536,0.560
23.539,0.560
23.542,0.550
23.544,0.545
23.547,0.585
23.550,0.605
23.553,0.625
23.556,0.615
23.558,0.585
23.561,0.565
23.564,0.560
23.567,0.565
23.569,0.560
23.572,0.540
23.575,0.510
23.578,0.485
23.581,0.455
23.583,0.470
23.586,0.465
23.589,0.450
23.592,0.480
23.594,0.480
23.597,0.495
23.600,0.520
23.603,0.525
23.606,0.515
23.608,0.495
23.611,0.490
23.614,0.495
23.617,0.515
23.619,0.525
23.622,0.520
23.625,0.505
23.628,0.500
23.631,0.510
23.633,0.535
23.636,0.545
23.639,0.525
23.642,0.535
23.644,0.525
23.647,0.530
23.650,0.560
23.653,0.565
23.656,0.555
23.658,0.550
23.661,0.540
23.664,0.535
23.667,0.530
23.669,0.560
23.672,0.625
23.675,0.735
23.678,0.885
23.681,1.065
23.683,1.295
23.686,1.520
23.689,1.730
23.692,1.945
23.694,2.105
23.697,2.155
23.700,1.985
23.703,1.660
23.706,1.275
23.708,0.930
23.711,0.675
23.714,0.545
23.717,0.530
23.719,0.535
23.722,0.505
23.725,0.485
23.728,0.520
23.731,0.560
23.733,0.585
23.736,0.570
23.739,0.550
23.742,0.525
23.744,0.520
23.747,0.530
23.750,0.540
23.753,0.540
23.756,0.535
23.758,0.530
23.761,0.515
23.764,0.540
23.767,0.565
23.769,0.565
23.772,0.570
23.775,0.570
23.778,0.570
23.781,0.570
23.783,0.580
23.786,0.575
23.789,0.575
23.792,0.580
23.794,0.575
23.797,0.580
23.800,0.595
23.803,0.600
23.806,0.600
23.808,0.590
23.811,0.570
23.814,0.575
23.817,0.575
23.819,0.585
23.822,0.580
23.825,0.570
23.828,0.580
23.831,0.600
23.833,0.605
23.836,0.585
23.839,0.585
23.842,0.580
23.844,0.600
23.847,0.605
23.850,0.630
23.853,0.625
23.856,0.635
23.858,0.615
23.861,0.610
23.864,0.630
23.867,0.655
23.869,0.660
23.872,0.670
23.875,0.650
23.878,0.655
23.881,0.670
23.883,0.725
23.886,0.750
23.889,0.740
23.892,0.750
23.894,0.765
23.897,0.775
23.900,0.785
23.903,0.805
23.906,0.810
23.908,0.800
23.911,0.815
23.914,0.825
23.917,0.850
23.919,0.855
23.922,0.845
23.925,0.860
23.928,0.835
23.931,0.860
23.933,0.870
23.936,0.875
23.939,0.880
23.942,0.860
23.944,0.865
23.947,0.875
23.950,0.870
23.953,0.860
23.956,0.845
23.958,0.830
23.961,0.805
23.964,0.780
23.967,0.785
23.969,0.760
23.972,0.740
23.975,0.705
23.978,0.705
23.981,0.680
23.983,0.675
23.986,0.650
23.989,0.630
23.992,0.600
23.994,0.585
23.997,0.585
24.000,0.585
24.003,0.580
24.006,0.570
24.008,0.535
24.011,0.520
24.014,0.530
24.017,0.550
24.019,0.540
24.022,0.520
24.025,0.495
24.028,0.490
24.031,0.510
24.033,0.535
24.036,0.555
24.039,0.535
24.042,0.520
24.044,0.500
24.047,0.500
24.050,0.510
24.053,0.520
24.056,0.505
24.058,0.485
24.061,0.495
24.064,0.505
24.067,0.535
24.069,0.535
24.072,0.560
24.075,0.550
24.078,0.535
24.081,0.570
24.083,0.595
24.086,0.605
24.089,0.605
24.092,0.610
24.094,0.620
24.097,0.635
24.100,0.630
24.103,0.620
24.106,0.615
24.108,0.600
24.111,0.585
24.114,0.580
24.117,0.580
24.119,0.565
24.122,0.530
24.125,0.495
24.128,0.475
24.131,0.480
24.133,0.470
24.136,0.465
24.139,0.445
24.142,0.425
24.144,0.415
24.147,0.405
24.150,0.410
24.153,0.400
24.156,0.405
24.158,0.390
24.161,0.370
24.164,0.375
24.167,0.365
24.169,0.380
24.172,0.375
24.175,0.355
24.178,0.350
24.181,0.350
24.183,0.365
24.186,0.360
24.189,0.340
24.192,0.315
24.194,0.310
24.197,0.315
24.200,0.325
24.203,0.310
24.206,0.270
24.208,0.230
24.211,0.205
24.214,0.245
24.217,0.345
24.219,0.475
24.222,0.615
24.225,0.775
24.228,0.980
24.231,1.205
24.233,1.460
24.236,1.660
24.239,1.770
24.242,1.740
24.244,1.530
24.247,1.200
24.250,0.870
24.253,0.555
24.256,0.300
24.258,0.165
24.261,0.145
24.264,0.200
24.267,0.210
24.269,0.205
24.272,0.210
24.275,0.220
24.278,0.220
24.281,0.210
24.283,0.200
24.286,0.200
24.289,0.170
24.292,0.145
24.294,0.160
24.297,0.165
24.300,0.195
24.303,0.190
24.306,0.175
24.308,0.175
24.311,0.180
24.314,0.200
24.317,0.210
24.319,0.205
24.322,0.210
24.325,0.210
24.328,0.210
24.331,0.205
24.333,0.205
24.336,0.225
24.339,0.235
24.342,0.230
24.344,0.225
24.347,0.225
24.350,0.250
24.353,0.255
24.356,0.235
24.358,0.220
24.361,0.220
24.364,0.240
24.367,0.250
24.369,0.255
24.372,0.260
24.375,0.250
24.378,0.255
24.381,0.265
24.383,0.260
24.386,0.245
24.389,0.245
24.392,0.235
24.394,0.250
24.397,0.250
24.400,0.280
24.403,0.315
24.406,0.325
24.408,0.300
24.411,0.285
24.414,0.300
24.417,0.325
24.419,0.335
24.422,0.340
24.425,0.305
24.428,0.300
24.431,0.335
24.433,0.355
24.436,0.370
24.439,0.360
24.442,0.350
24.444,0.320
24.447,0.360
24.450,0.380
24.453,0.400
24.456,0.385
24.458,0.365
24.461,0.370
24.464,0.390
24.467,0.420
24.469,0.425
24.472,0.415
24.475,0.395
24.478,0.380
24.481,0.390
24.483,0.430
24.486,0.440
24.489,0.425
24.492,0.410
24.494,0.400
24.497,0.410
24.500,0.405
24.503,0.395
24.506,0.350
24.508,0.305
24.511,0.270
24.514,0.250
24.517,0.270
24.519,0.275
24.522,0.260
24.525,0.235
24.528,0.220
24.531,0.210
24.533,0.215
24.536,0.205
24.539,0.200
24.542,0.180
24.544,0.160
24.547,0.160
24.550,0.155
24.553,0.150
24.556,0.125
24.558,0.105
24.561,0.115
24.564,0.125
24.567,0.150
24.569,0.155
24.572,0.150
24.575,0.135
24.578,0.135
24.581,0.135
24.583,0.140
24.586,0.135
24.589,0.155
24.592,0.130
24.594,0.125
24.597,0.115
24.600,0.135
24.603,0.135
24.606,0.145
24.608,0.135
24.611,0.130
24.614,0.155
24.617,0.190
24.619,0.230
24.622,0.235
24.625,0.235
24.628,0.235
24.631,0.250
24.633,0.275
24.636,0.295
24.639,0.305
24.642,0.310
24.644,0.325
24.647,0.320
24.650,0.315
24.653,0.310
24.656,0.305
24.658,0.285
24.661,0.280
24.664,0.260
24.667,0.260
24.669,0.240
24.672,0.220
24.675,0.220
24.678,0.185
24.681,0.170
24.683,0.175
24.686,0.165
24.689,0.145
24.692,0.075
24.694,0.055
24.697,0.085
24.700,0.095
24.703,0.105
24.706,0.080
24.708,0.040
24.711,0.020
24.714,0.010
24.717,0.020
24.719,0.020
24.722,0.010
24.725,0.000
24.728,0.010
24.731,0.005
24.733,-0.025
24.736,-0.035
24.739,-0.045
24.742,-0.065
24.744,-0.065
24.747,-0.040
24.750,-0.050
24.753,-0.065
24.756,-0.085
24.758,-0.095
24.761,-0.050
24.764,0.060
24.767,0.205
24.769,0.395
24.772,0.610
24.775,0.895
24.778,1.180
24.781,1.460
24.783,1.705
24.786,1.775
24.789,1.595
24.792,1.240
24.794,0.845
24.797,0.470
24.800,0.185
24.803,0.010
24.806,-0.045
24.808,-0.085
24.811,-0.115
24.814,-0.105
24.817,-0.075
24.819,-0.060
24.822,-0.090
24.825,-0.110
24.828,-0.145
24.831,-0.150
24.833,-0.155
24.836,-0.165
24.839,-0.170
24.842,-0.185
24.844,-0.195
24.847,-0.205
24.850,-0.195
24.853,-0.175
24.856,-0.190
24.858,-0.210
24.861,-0.240
24.864,-0.225
24.867,-0.215
24.869,-0.205
24.872,-0.220
24.875,-0.230
24.878,-0.230
24.881,-0.235
24.883,-0.205
24.886,-0.195
24.889,-0.220
24.892,-0.230
24.894,-0.240
24.897,-0.250
24.900,-0.235
24.903,-0.230
24.906,-0.240
24.908,-0.235
24.911,-0.245
24.914,-0.225
24.917,-0.205
24.919,-0.210
24.922,-0.200
24.925,-0.190
24.928,-0.190
24.931,-0.185
24.933,-0.160
24.936,-0.145
24.939,-0.140
24.942,-0.155
24.944,-0.145
24.947,-0.125
24.950,-0.100
24.953,-0.095
24.956,-0.090
24.958,-0.125
24.961,-0.110
24.964,-0.090
24.967,-0.055
24.969,-0.040
24.972,-0.040
24.975,-0.055
24.978,-0.075
24.981,-0.040
24.983,-0.020
24.986,-0.035
24.989,-0.060
24.992,-0.060
24.994,-0.050
24.997,-0.015
25.000,0.020
25.003,0.040
25.006,0.040
25.008,0.045
25.011,0.040
25.014,0.050
25.017,0.065
25.019,0.050
25.022,0.045
25.025,0.030
25.028,0.030
25.031,0.020
